time,emg_1,emg_2,emg_3,emg_4,emg_5,emg_6,emg_7,emg_8,ori_1,ori_2,ori_3,ori_4,acc_1,acc_2,acc_3
1543517296.8740864,-1.0,-1.0,-5.0,-6.0,-2.0,0.0,-1.0,-2.0,-0.06768798828125,0.00146484375,-0.47412109375,0.87786865234375,0.06103515625,-0.1357421875,1.04736328125
1543517296.8871229,-1.0,2.0,9.0,3.0,0.0,-1.0,-1.0,-1.0,-0.06768798828125,0.00152587890625,-0.47412109375,0.87786865234375,0.0576171875,-0.13818359375,1.04443359375
1543517296.896063,-1.0,-2.0,-3.0,-1.0,-2.0,-1.0,-1.0,-1.0,-0.0677490234375,0.0015869140625,-0.47406005859375,0.87786865234375,0.05908203125,-0.1455078125,1.0458984375
1543517296.9111302,1.0,-2.0,-11.0,-3.0,-1.0,-1.0,-1.0,-1.0,-0.0677490234375,0.0015869140625,-0.47406005859375,0.87786865234375,0.05908203125,-0.1455078125,1.0458984375
1543517296.9340422,-1.0,-4.0,-7.0,2.0,1.0,-2.0,0.0,-1.0,-0.06768798828125,0.00152587890625,-0.47406005859375,0.87786865234375,0.06201171875,-0.140625,1.04736328125
1543517296.9470363,-1.0,-1.0,-2.0,1.0,-2.0,-2.0,-1.0,0.0,-0.067626953125,0.00140380859375,-0.47406005859375,0.87786865234375,0.06005859375,-0.13623046875,1.05126953125
1543517296.9560294,-2.0,-1.0,-6.0,-5.0,-1.0,-1.0,0.0,-2.0,-0.067626953125,0.00146484375,-0.47406005859375,0.87786865234375,0.052734375,-0.1337890625,1.04931640625
1543517296.9710238,-2.0,2.0,-6.0,5.0,1.0,1.0,-3.0,-1.0,-0.067626953125,0.00146484375,-0.47406005859375,0.87786865234375,0.052734375,-0.1337890625,1.04931640625
1543517296.9940088,-1.0,-1.0,1.0,0.0,-2.0,-1.0,1.0,0.0,-0.0677490234375,0.0013427734375,-0.47393798828125,0.8779296875,0.0634765625,-0.13427734375,1.0537109375
1543517297.0160155,0.0,1.0,-1.0,-2.0,0.0,-2.0,-1.0,-2.0,-0.06805419921875,0.0013427734375,-0.473876953125,0.8779296875,0.06396484375,-0.13916015625,1.0517578125
1543517297.0310423,0.0,-1.0,5.0,0.0,-3.0,-2.0,-2.0,-1.0,-0.06842041015625,0.001220703125,-0.4737548828125,0.87799072265625,0.07177734375,-0.13720703125,1.046875
1543517297.0539734,-1.0,-4.0,0.0,-2.0,-1.0,-1.0,-1.0,-2.0,-0.06866455078125,0.00103759765625,-0.4735107421875,0.87811279296875,0.07568359375,-0.13525390625,1.0556640625
1543517297.07696,-1.0,-1.0,0.0,-6.0,0.0,-2.0,-1.0,-3.0,-0.06890869140625,0.00091552734375,-0.47320556640625,0.87823486328125,0.06884765625,-0.13232421875,1.05517578125
1543517297.0910068,1.0,-1.0,10.0,-2.0,-3.0,-2.0,0.0,-2.0,-0.069091796875,0.00079345703125,-0.47283935546875,0.87841796875,0.0703125,-0.134765625,1.06201171875
1543517297.1209893,0.0,-3.0,-2.0,-2.0,-2.0,1.0,0.0,1.0,-0.06915283203125,0.00054931640625,-0.472412109375,0.878662109375,0.07470703125,-0.13330078125,1.05908203125
1543517297.1359787,0.0,0.0,6.0,-3.0,-1.0,-3.0,-1.0,-1.0,-0.06915283203125,0.0003662109375,-0.4720458984375,0.87884521484375,0.07373046875,-0.1328125,1.0625
1543517297.1509173,-3.0,-6.0,0.0,-1.0,1.0,-1.0,-1.0,-2.0,-0.06915283203125,0.0001220703125,-0.47161865234375,0.87908935546875,0.07373046875,-0.13232421875,1.0556640625
1543517297.157913,18.0,1.0,6.0,0.0,-2.0,-1.0,-1.0,-1.0,-0.0689697265625,-0.00030517578125,-0.47125244140625,0.8792724609375,0.07666015625,-0.13134765625,1.05419921875
1543517297.1739054,-1.0,0.0,-10.0,-1.0,-1.0,-3.0,-2.0,-1.0,-0.0689697265625,-0.00030517578125,-0.47125244140625,0.8792724609375,0.07666015625,-0.13134765625,1.05419921875
1543517297.1958907,-5.0,3.0,-2.0,1.0,-2.0,-1.0,1.0,-1.0,-0.0684814453125,-0.00079345703125,-0.470947265625,0.8795166015625,0.07470703125,-0.12158203125,1.0576171875
1543517297.2108855,-3.0,0.0,-2.0,1.0,0.0,-1.0,-3.0,-5.0,-0.06805419921875,-0.001220703125,-0.4708251953125,0.87957763671875,0.08203125,-0.1171875,1.08154296875
1543517297.21688,-3.0,-3.0,-4.0,-1.0,-2.0,-1.0,-3.0,-1.0,-0.0677490234375,-0.00146484375,-0.47064208984375,0.87969970703125,0.0732421875,-0.11962890625,1.07958984375
1543517297.2338724,-32.0,-3.0,17.0,-4.0,-5.0,-4.0,-3.0,1.0,-0.0677490234375,-0.00146484375,-0.47064208984375,0.87969970703125,0.0732421875,-0.11962890625,1.07958984375
1543517297.2559128,13.0,-6.0,-23.0,-3.0,0.0,-2.0,1.0,0.0,-0.067138671875,-0.0018310546875,-0.470458984375,0.8798828125,0.0771484375,-0.11865234375,1.07275390625
1543517297.270851,3.0,-5.0,-3.0,0.0,-2.0,2.0,-1.0,1.0,-0.0670166015625,-0.001953125,-0.47027587890625,0.8800048828125,0.0751953125,-0.11767578125,1.06689453125
1543517297.2778442,14.0,-2.0,-5.0,-2.0,-1.0,-4.0,-2.0,-13.0,-0.06719970703125,-0.0018310546875,-0.469970703125,0.88006591796875,0.07763671875,-0.1279296875,1.072265625
1543517297.2938433,9.0,1.0,4.0,-2.0,-1.0,-2.0,-3.0,4.0,-0.06719970703125,-0.0018310546875,-0.469970703125,0.88006591796875,0.07763671875,-0.1279296875,1.072265625
1543517297.315899,-6.0,-3.0,-9.0,-1.0,-1.0,1.0,-2.0,7.0,-0.0673828125,-0.001953125,-0.46978759765625,0.88018798828125,0.08251953125,-0.13671875,1.06884765625
1543517297.3308156,15.0,6.0,2.0,-3.0,1.0,-3.0,7.0,20.0,-0.0672607421875,-0.002197265625,-0.4696044921875,0.88031005859375,0.07080078125,-0.13623046875,1.0751953125
1543517297.3378096,-11.0,-1.0,8.0,-1.0,-3.0,1.0,20.0,8.0,-0.0667724609375,-0.00250244140625,-0.46942138671875,0.88043212890625,0.0703125,-0.130859375,1.07421875
1543517297.3538043,-8.0,2.0,-3.0,3.0,-2.0,-3.0,-12.0,-20.0,-0.0667724609375,-0.00250244140625,-0.46942138671875,0.88043212890625,0.0703125,-0.130859375,1.07421875
1543517297.3768413,3.0,-5.0,-48.0,-5.0,-2.0,-1.0,-10.0,-15.0,-0.0662841796875,-0.0029296875,-0.46929931640625,0.88055419921875,0.078125,-0.126953125,1.0693359375
1543517297.3907883,-5.0,2.0,27.0,2.0,2.0,3.0,35.0,37.0,-0.06573486328125,-0.00323486328125,-0.46929931640625,0.88055419921875,0.072265625,-0.13232421875,1.06591796875
1543517297.3977754,7.0,-6.0,-15.0,0.0,-3.0,-1.0,-15.0,-7.0,-0.06512451171875,-0.00360107421875,-0.46942138671875,0.88055419921875,0.06494140625,-0.12255859375,1.06005859375
1543517297.4138196,2.0,1.0,1.0,1.0,0.0,-2.0,6.0,-21.0,-0.06512451171875,-0.00360107421875,-0.46942138671875,0.88055419921875,0.06494140625,-0.12255859375,1.06005859375
1543517297.4357688,-4.0,8.0,12.0,5.0,-3.0,0.0,-22.0,-15.0,-0.06427001953125,-0.00421142578125,-0.4697265625,0.88043212890625,0.076171875,-0.11962890625,1.07177734375
1543517297.4497654,-3.0,-11.0,7.0,-6.0,-1.0,-5.0,-1.0,0.0,-0.06341552734375,-0.0048828125,-0.469970703125,0.88037109375,0.07763671875,-0.1064453125,1.06396484375
1543517297.4577408,7.0,3.0,-3.0,4.0,1.0,0.0,-12.0,-17.0,-0.0625,-0.00555419921875,-0.47027587890625,0.8802490234375,0.07763671875,-0.1015625,1.06005859375
1543517297.4737327,-8.0,2.0,-6.0,-4.0,-5.0,-1.0,8.0,19.0,-0.0625,-0.00555419921875,-0.47027587890625,0.8802490234375,0.07763671875,-0.1015625,1.06005859375
1543517297.4967387,6.0,-1.0,2.0,1.0,-1.0,1.0,3.0,4.0,-0.06158447265625,-0.00604248046875,-0.47064208984375,0.880126953125,0.08349609375,-0.09814453125,1.0751953125
1543517297.509771,1.0,-7.0,-5.0,-4.0,-1.0,1.0,20.0,15.0,-0.060791015625,-0.00628662109375,-0.4708251953125,0.88006591796875,0.0751953125,-0.09228515625,1.05859375
1543517297.5177279,-1.0,1.0,6.0,-3.0,0.0,-1.0,2.0,0.0,-0.060302734375,-0.00616455078125,-0.4708251953125,0.880126953125,0.0712890625,-0.1025390625,1.04931640625
1543517297.5336986,4.0,0.0,-11.0,0.0,-2.0,0.0,-39.0,-34.0,-0.060302734375,-0.00616455078125,-0.4708251953125,0.880126953125,0.0712890625,-0.1025390625,1.04931640625
1543517297.556704,1.0,0.0,21.0,3.0,0.0,-1.0,-7.0,-10.0,-0.05987548828125,-0.00579833984375,-0.4708251953125,0.88018798828125,0.06982421875,-0.10009765625,1.0556640625
1543517297.5697494,-8.0,-2.0,-12.0,2.0,4.0,0.0,-18.0,-7.0,-0.05975341796875,-0.00531005859375,-0.47076416015625,0.88018798828125,0.068359375,-0.1181640625,1.0546875
1543517297.577691,-2.0,2.0,-20.0,-5.0,-5.0,0.0,-2.0,-10.0,-0.059326171875,-0.00506591796875,-0.4708251953125,0.88018798828125,0.07080078125,-0.10986328125,1.05712890625
1543517297.5936809,3.0,-5.0,-10.0,-2.0,-3.0,-2.0,-8.0,-4.0,-0.059326171875,-0.00506591796875,-0.4708251953125,0.88018798828125,0.07080078125,-0.10986328125,1.05712890625
1543517297.6157045,-7.0,0.0,-4.0,-5.0,0.0,-1.0,-4.0,-21.0,-0.05859375,-0.00506591796875,-0.47088623046875,0.88018798828125,0.064453125,-0.095703125,1.04296875
1543517297.6296966,-2.0,1.0,8.0,-9.0,-1.0,-3.0,5.0,5.0,-0.05804443359375,-0.005126953125,-0.4710693359375,0.88018798828125,0.068359375,-0.0986328125,1.037109375
1543517297.6386373,-4.0,3.0,-15.0,3.0,2.0,1.0,-8.0,-14.0,-0.057861328125,-0.0050048828125,-0.47119140625,0.880126953125,0.07177734375,-0.107421875,1.05908203125
1543517297.6526897,5.0,-8.0,17.0,1.0,0.0,0.0,6.0,7.0,-0.057861328125,-0.0050048828125,-0.47119140625,0.880126953125,0.07177734375,-0.107421875,1.05908203125
1543517297.6606433,-9.0,-2.0,-9.0,-3.0,-1.0,-2.0,-7.0,-5.0,-0.05780029296875,-0.0047607421875,-0.4713134765625,0.88006591796875,0.06103515625,-0.10546875,1.05517578125
1543517297.6766374,-1.0,-1.0,-4.0,2.0,-2.0,2.0,0.0,-5.0,-0.05780029296875,-0.0047607421875,-0.4713134765625,0.88006591796875,0.06103515625,-0.10546875,1.05517578125
1543517297.6896613,-2.0,0.0,-11.0,-2.0,-1.0,0.0,-2.0,-10.0,-0.0577392578125,-0.00469970703125,-0.4713134765625,0.88006591796875,0.0576171875,-0.1025390625,1.0546875
1543517297.697603,-3.0,-10.0,-7.0,0.0,1.0,1.0,-5.0,2.0,-0.05792236328125,-0.00439453125,-0.47137451171875,0.8800048828125,0.060546875,-0.10791015625,1.05419921875
1543517297.713632,2.0,-1.0,2.0,-2.0,-2.0,-3.0,-1.0,10.0,-0.05792236328125,-0.00439453125,-0.47137451171875,0.8800048828125,0.060546875,-0.10791015625,1.05419921875
1543517297.7365818,-3.0,-6.0,-21.0,-6.0,1.0,-1.0,-1.0,4.0,-0.05810546875,-0.00421142578125,-0.471435546875,0.87994384765625,0.0595703125,-0.1103515625,1.0546875
1543517297.7495928,1.0,1.0,3.0,-2.0,-3.0,0.0,0.0,-1.0,-0.058349609375,-0.004150390625,-0.4715576171875,0.8798828125,0.068359375,-0.10888671875,1.05908203125
1543517297.7585683,-2.0,-1.0,2.0,4.0,-1.0,-1.0,-6.0,-1.0,-0.05865478515625,-0.0040283203125,-0.47161865234375,0.87982177734375,0.060546875,-0.1044921875,1.04541015625
1543517297.7736323,-4.0,-3.0,-5.0,6.0,0.0,-1.0,4.0,1.0,-0.05865478515625,-0.0040283203125,-0.47161865234375,0.87982177734375,0.060546875,-0.1044921875,1.04541015625
1543517297.7965467,-2.0,0.0,0.0,7.0,7.0,1.0,0.0,-1.0,-0.05914306640625,-0.0040283203125,-0.47174072265625,0.8797607421875,0.07275390625,-0.111328125,1.06494140625
1543517297.8095922,0.0,7.0,8.0,0.0,0.0,1.0,-1.0,-3.0,-0.05950927734375,-0.00390625,-0.4718017578125,0.879638671875,0.0712890625,-0.107421875,1.0537109375
1543517297.8185341,-1.0,-5.0,-4.0,2.0,2.0,-1.0,-2.0,-1.0,-0.059814453125,-0.00372314453125,-0.471923828125,0.87957763671875,0.06640625,-0.11279296875,1.05859375
1543517297.8335276,-1.0,3.0,-1.0,-2.0,-2.0,-4.0,1.0,0.0,-0.059814453125,-0.00372314453125,-0.471923828125,0.87957763671875,0.06640625,-0.11279296875,1.05859375
1543517297.8565128,-1.0,-1.0,6.0,-10.0,0.0,-2.0,1.0,-1.0,-0.0601806640625,-0.00335693359375,-0.47186279296875,0.87957763671875,0.06591796875,-0.11181640625,1.0556640625
1543517297.8695579,-1.0,-1.0,-4.0,4.0,-3.0,-1.0,2.0,0.0,-0.06072998046875,-0.00274658203125,-0.47174072265625,0.879638671875,0.06689453125,-0.123046875,1.060546875
1543517297.8784988,-6.0,-1.0,0.0,-6.0,-2.0,1.0,-3.0,-1.0,-0.0611572265625,-0.00238037109375,-0.4715576171875,0.87969970703125,0.060546875,-0.12353515625,1.0458984375
1543517297.8935442,0.0,-3.0,5.0,1.0,-2.0,-3.0,-1.0,1.0,-0.0611572265625,-0.00238037109375,-0.4715576171875,0.87969970703125,0.060546875,-0.12353515625,1.0458984375
1543517297.9164777,-2.0,-1.0,5.0,-2.0,-1.0,0.0,-1.0,0.0,-0.0614013671875,-0.0020751953125,-0.47149658203125,0.87969970703125,0.05712890625,-0.123046875,1.04052734375
1543517297.9375172,-3.0,-4.0,-5.0,0.0,0.0,-1.0,-2.0,-3.0,-0.061767578125,-0.00189208984375,-0.47137451171875,0.8797607421875,0.06494140625,-0.12451171875,1.05810546875
1543517297.9464607,1.0,1.0,-7.0,5.0,-2.0,-3.0,-1.0,0.0,-0.061767578125,-0.0018310546875,-0.47137451171875,0.8797607421875,0.06494140625,-0.12646484375,1.06201171875
1543517297.9534752,0.0,-4.0,0.0,-3.0,-3.0,-3.0,-2.0,-1.0,-0.061767578125,-0.0018310546875,-0.47137451171875,0.8797607421875,0.06494140625,-0.12646484375,1.06201171875
1543517297.9764428,-1.0,-2.0,-1.0,-4.0,-1.0,0.0,1.0,0.0,-0.061767578125,-0.00213623046875,-0.47125244140625,0.87982177734375,0.06689453125,-0.11767578125,1.05224609375
1543517297.998485,-1.0,5.0,-8.0,-2.0,-5.0,-2.0,1.0,-2.0,-0.061767578125,-0.00238037109375,-0.47100830078125,0.87994384765625,0.0615234375,-0.1142578125,1.048828125
1543517298.0134773,0.0,-3.0,-1.0,2.0,-1.0,-1.0,-1.0,-2.0,-0.06195068359375,-0.0029296875,-0.47088623046875,0.8800048828125,0.0654296875,-0.1083984375,1.0400390625
1543517298.0364091,-2.0,-2.0,1.0,0.0,0.0,-2.0,-1.0,-2.0,-0.06219482421875,-0.00347900390625,-0.47088623046875,0.8800048828125,0.0693359375,-0.11279296875,1.0400390625
1543517298.05845,-2.0,-1.0,0.0,-2.0,-3.0,-2.0,-3.0,0.0,-0.06243896484375,-0.004150390625,-0.470947265625,0.87994384765625,0.0732421875,-0.11279296875,1.04638671875
1543517298.0733871,-2.0,0.0,-1.0,-5.0,2.0,1.0,0.0,-1.0,-0.06280517578125,-0.00482177734375,-0.470947265625,0.8798828125,0.072265625,-0.1171875,1.05126953125
1543517298.0793855,-2.0,0.0,4.0,-2.0,0.0,-3.0,-1.0,-1.0,-0.06341552734375,-0.00537109375,-0.47088623046875,0.8798828125,0.08203125,-0.11376953125,1.06005859375
1543517298.096375,-1.0,-4.0,4.0,0.0,-1.0,-1.0,-1.0,-2.0,-0.06341552734375,-0.00537109375,-0.47088623046875,0.8798828125,0.08203125,-0.11376953125,1.06005859375
1543517298.1184154,-2.0,-1.0,-3.0,2.0,0.0,0.0,-1.0,-1.0,-0.064208984375,-0.005859375,-0.47076416015625,0.8798828125,0.08251953125,-0.115234375,1.0732421875
1543517298.1333573,-2.0,-4.0,6.0,-2.0,-5.0,-4.0,0.0,0.0,-0.06512451171875,-0.00616455078125,-0.470703125,0.87982177734375,0.07666015625,-0.123046875,1.07470703125
1543517298.1393495,-1.0,1.0,-9.0,-1.0,-1.0,-1.0,1.0,-1.0,-0.06591796875,-0.00665283203125,-0.47076416015625,0.8797607421875,0.08349609375,-0.12451171875,1.06689453125
1543517298.1563401,-1.0,-3.0,-10.0,4.0,2.0,0.0,-2.0,0.0,-0.06591796875,-0.00665283203125,-0.47076416015625,0.8797607421875,0.08349609375,-0.12451171875,1.06689453125
1543517298.1783812,1.0,-1.0,-11.0,-2.0,-3.0,-3.0,-2.0,0.0,-0.06646728515625,-0.00701904296875,-0.4708251953125,0.87969970703125,0.078125,-0.12158203125,1.072265625
1543517298.1933193,-1.0,-3.0,-1.0,6.0,1.0,-1.0,-2.0,-1.0,-0.06689453125,-0.0074462890625,-0.470947265625,0.87957763671875,0.07958984375,-0.1181640625,1.078125
1543517298.2003155,-1.0,-5.0,-4.0,-3.0,-1.0,-2.0,0.0,-1.0,-0.06732177734375,-0.00787353515625,-0.47113037109375,0.87945556640625,0.08740234375,-0.12353515625,1.08056640625
1543517298.216326,-1.0,0.0,-2.0,-5.0,-1.0,0.0,0.0,-1.0,-0.06732177734375,-0.00787353515625,-0.47113037109375,0.87945556640625,0.08740234375,-0.12353515625,1.08056640625
1543517298.238346,-1.0,1.0,5.0,1.0,0.0,-1.0,-2.0,-2.0,-0.06756591796875,-0.00823974609375,-0.4713134765625,0.87933349609375,0.09130859375,-0.115234375,1.07666015625
1543517298.2532866,-2.0,-4.0,2.0,-6.0,-3.0,-2.0,-2.0,-1.0,-0.06793212890625,-0.00848388671875,-0.47149658203125,0.87921142578125,0.09521484375,-0.12451171875,1.08056640625
1543517298.2602801,-2.0,0.0,-3.0,-3.0,-1.0,-2.0,-2.0,-1.0,-0.06793212890625,-0.00848388671875,-0.47149658203125,0.87921142578125,0.09716796875,-0.1220703125,1.07421875
1543517298.2763238,-3.0,-3.0,-5.0,3.0,-1.0,0.0,1.0,-2.0,-0.06793212890625,-0.00848388671875,-0.47149658203125,0.87921142578125,0.09716796875,-0.1220703125,1.07421875
1543517298.2992594,-2.0,2.0,0.0,-4.0,0.0,0.0,0.0,0.0,-0.068115234375,-0.00836181640625,-0.4715576171875,0.879150390625,0.087890625,-0.12353515625,1.0830078125
1543517298.31325,-1.0,-2.0,-7.0,-4.0,-2.0,-3.0,-1.0,1.0,-0.06817626953125,-0.00836181640625,-0.4715576171875,0.879150390625,0.09326171875,-0.12890625,1.08349609375
1543517298.3202455,-2.0,-3.0,3.0,-3.0,-4.0,-2.0,-2.0,0.0,-0.06817626953125,-0.00811767578125,-0.4715576171875,0.879150390625,0.08984375,-0.1298828125,1.0732421875
1543517298.3362362,-1.0,-9.0,5.0,-4.0,-2.0,0.0,-2.0,-1.0,-0.06817626953125,-0.00811767578125,-0.4715576171875,0.879150390625,0.08984375,-0.1298828125,1.0732421875
1543517298.3592427,-1.0,1.0,-6.0,-3.0,-2.0,-2.0,1.0,0.0,-0.068115234375,-0.00787353515625,-0.47149658203125,0.879150390625,0.08984375,-0.125,1.076171875
1543517298.3732257,-2.0,-2.0,0.0,1.0,-3.0,0.0,-1.0,-1.0,-0.06805419921875,-0.007568359375,-0.471435546875,0.87921142578125,0.08837890625,-0.12353515625,1.06787109375
1543517298.380214,0.0,0.0,1.0,-8.0,-1.0,-1.0,-2.0,0.0,-0.0679931640625,-0.00701904296875,-0.4713134765625,0.8792724609375,0.078125,-0.1298828125,1.0634765625
1543517298.3962054,0.0,6.0,3.0,-2.0,-1.0,2.0,-1.0,-1.0,-0.0679931640625,-0.00701904296875,-0.4713134765625,0.8792724609375,0.078125,-0.1298828125,1.0634765625
