time,emg_1,emg_2,emg_3,emg_4,emg_5,emg_6,emg_7,emg_8,ori_1,ori_2,ori_3,ori_4,acc_1,acc_2,acc_3
1543517453.162385,-2.0,1.0,1.0,-1.0,2.0,1.0,0.0,-1.0,-0.4793701171875,0.01446533203125,0.0054931640625,0.87744140625,-0.037109375,-0.888671875,0.568359375
1543517453.1693249,0.0,-1.0,-2.0,-11.0,3.0,1.0,2.0,1.0,-0.47943115234375,0.014892578125,0.00518798828125,0.87744140625,-0.0390625,-0.8837890625,0.57421875
1543517453.1773214,-1.0,-2.0,-1.0,2.0,-3.0,-3.0,-2.0,-3.0,-0.47943115234375,0.014892578125,0.00518798828125,0.87744140625,-0.0390625,-0.8837890625,0.57421875
1543517453.1853154,-1.0,-2.0,-4.0,-19.0,2.0,1.0,-6.0,4.0,-0.47943115234375,0.014892578125,0.00518798828125,0.87744140625,-0.0390625,-0.8837890625,0.57421875
1543517453.200308,1.0,1.0,-2.0,2.0,-2.0,0.0,-5.0,-5.0,-0.4794921875,0.01544189453125,0.00494384765625,0.87738037109375,-0.044921875,-0.8896484375,0.56884765625
1543517453.2073033,-2.0,1.0,2.0,13.0,-1.0,-3.0,-8.0,-2.0,-0.479736328125,0.0159912109375,0.00482177734375,0.87725830078125,-0.052734375,-0.9033203125,0.564453125
1543517453.2223482,4.0,0.0,0.0,7.0,-2.0,-2.0,-2.0,5.0,-0.479736328125,0.0159912109375,0.00482177734375,0.87725830078125,-0.052734375,-0.9033203125,0.564453125
1543517453.2302935,-14.0,-2.0,1.0,2.0,-6.0,-2.0,-8.0,-3.0,-0.4798583984375,0.016357421875,0.00469970703125,0.87713623046875,-0.05078125,-0.8955078125,0.55322265625
1543517453.2372959,15.0,-2.0,-2.0,-1.0,8.0,5.0,5.0,-1.0,-0.4798583984375,0.016357421875,0.00469970703125,0.87713623046875,-0.05078125,-0.8955078125,0.55322265625
1543517453.245281,9.0,-3.0,0.0,20.0,0.0,2.0,9.0,2.0,-0.4798583984375,0.016357421875,0.00469970703125,0.87713623046875,-0.05078125,-0.8955078125,0.55322265625
1543517453.2602732,-4.0,4.0,2.0,-79.0,-18.0,-24.0,-26.0,-5.0,-0.4798583984375,0.01641845703125,0.00469970703125,0.87713623046875,-0.0478515625,-0.89208984375,0.5673828125
1543517453.2672691,-8.0,0.0,15.0,-10.0,-5.0,-6.0,-2.0,-5.0,-0.48052978515625,0.0166015625,0.0045166015625,0.87677001953125,-0.04296875,-0.8994140625,0.5537109375
1543517453.2823153,-10.0,-6.0,-12.0,17.0,2.0,-3.0,-33.0,-7.0,-0.48052978515625,0.0166015625,0.0045166015625,0.87677001953125,-0.04296875,-0.8994140625,0.5537109375
1543517453.289256,18.0,-8.0,-42.0,-36.0,-4.0,1.0,0.0,8.0,-0.48187255859375,0.0169677734375,0.00408935546875,0.87603759765625,-0.0283203125,-0.9130859375,0.568359375
1543517453.2972524,-19.0,7.0,41.0,103.0,8.0,-4.0,-8.0,-14.0,-0.48187255859375,0.0169677734375,0.00408935546875,0.87603759765625,-0.0283203125,-0.9130859375,0.568359375
1543517453.3052473,11.0,-4.0,-7.0,-23.0,10.0,25.0,-21.0,8.0,-0.48187255859375,0.0169677734375,0.00408935546875,0.87603759765625,-0.0283203125,-0.9130859375,0.568359375
1543517453.320241,-2.0,-6.0,-23.0,-9.0,4.0,7.0,18.0,1.0,-0.48480224609375,0.016845703125,0.003173828125,0.87445068359375,-0.01611328125,-0.92578125,0.54931640625
1543517453.3272343,3.0,-6.0,-27.0,-32.0,-5.0,1.0,5.0,-8.0,-0.4866943359375,0.01678466796875,0.0020751953125,0.8734130859375,0.0029296875,-0.88525390625,0.576171875
1543517453.3422275,16.0,-1.0,7.0,28.0,-1.0,6.0,42.0,1.0,-0.4866943359375,0.01678466796875,0.0020751953125,0.8734130859375,0.0029296875,-0.88525390625,0.576171875
1543517453.3492415,11.0,-1.0,-3.0,-2.0,-1.0,-2.0,-22.0,1.0,-0.48651123046875,0.017333984375,0.0015869140625,0.87347412109375,-0.025390625,-0.84033203125,0.60009765625
1543517453.357217,-6.0,-10.0,-32.0,13.0,7.0,10.0,15.0,8.0,-0.48651123046875,0.017333984375,0.0015869140625,0.87347412109375,-0.025390625,-0.84033203125,0.60009765625
1543517453.3642323,5.0,5.0,0.0,-68.0,-9.0,2.0,22.0,19.0,-0.48651123046875,0.017333984375,0.0015869140625,0.87347412109375,-0.025390625,-0.84033203125,0.60009765625
1543517453.372208,-12.0,0.0,1.0,14.0,-6.0,-7.0,-4.0,-42.0,-0.48968505859375,0.018310546875,0.00140380859375,0.8717041015625,-0.0595703125,-0.93505859375,0.55322265625
1543517453.3802056,-11.0,-1.0,-1.0,-10.0,3.0,-1.0,12.0,2.0,-0.48968505859375,0.018310546875,0.00140380859375,0.8717041015625,-0.0595703125,-0.93505859375,0.55322265625
1543517453.3871996,-4.0,2.0,6.0,36.0,1.0,-2.0,-13.0,5.0,-0.49163818359375,0.01885986328125,0.00146484375,0.87060546875,-0.04833984375,-0.95556640625,0.54736328125
1543517453.4022443,8.0,1.0,-19.0,-72.0,-12.0,-2.0,12.0,9.0,-0.49163818359375,0.01885986328125,0.00146484375,0.87060546875,-0.04833984375,-0.95556640625,0.54736328125
1543517453.410187,12.0,0.0,-4.0,-16.0,-4.0,0.0,4.0,8.0,-0.4910888671875,0.01971435546875,0.00115966796875,0.870849609375,-0.0361328125,-0.87060546875,0.5546875
1543517453.4261792,-1.0,3.0,14.0,-1.0,1.0,7.0,-5.0,-13.0,-0.4910888671875,0.01971435546875,0.00115966796875,0.870849609375,-0.0361328125,-0.87060546875,0.5546875
1543517453.4401703,-7.0,-2.0,-10.0,-30.0,-9.0,-13.0,-19.0,11.0,-0.4918212890625,0.0201416015625,0.00091552734375,0.8704833984375,-0.04052734375,-0.89794921875,0.5302734375
1543517453.4471655,-4.0,2.0,13.0,21.0,4.0,1.0,11.0,8.0,-0.49169921875,0.02081298828125,0.0,0.8704833984375,-0.0302734375,-0.9072265625,0.55419921875
1543517453.4621568,4.0,-7.0,-12.0,-11.0,-6.0,-4.0,14.0,8.0,-0.49169921875,0.02081298828125,0.0,0.8704833984375,-0.0302734375,-0.9072265625,0.55419921875
1543517453.4701533,-8.0,-6.0,-11.0,-27.0,-4.0,4.0,-5.0,19.0,-0.4913330078125,0.02117919921875,-0.0006103515625,0.8707275390625,-0.0322265625,-0.8828125,0.52587890625
1543517453.4861436,5.0,0.0,11.0,22.0,2.0,-1.0,-5.0,-13.0,-0.4913330078125,0.02117919921875,-0.0006103515625,0.8707275390625,-0.0322265625,-0.8828125,0.52587890625
1543517453.5001576,-7.0,2.0,12.0,27.0,-1.0,-5.0,-15.0,-9.0,-0.49041748046875,0.02130126953125,-0.00079345703125,0.8712158203125,-0.0205078125,-0.8642578125,0.55419921875
1543517453.5071313,-6.0,2.0,-3.0,3.0,0.0,2.0,-12.0,-6.0,-0.4908447265625,0.02142333984375,-0.00079345703125,0.8709716796875,-0.0361328125,-0.90625,0.5361328125
1543517453.5231414,10.0,-2.0,-1.0,-22.0,-3.0,0.0,17.0,6.0,-0.4908447265625,0.02142333984375,-0.00079345703125,0.8709716796875,-0.0361328125,-0.90625,0.5361328125
1543517453.5301194,-1.0,-3.0,4.0,5.0,1.0,-2.0,1.0,-9.0,-0.4903564453125,0.0213623046875,-0.001220703125,0.87127685546875,-0.03125,-0.9091796875,0.5380859375
1543517453.54611,1.0,3.0,6.0,7.0,-5.0,-6.0,-16.0,4.0,-0.4903564453125,0.0213623046875,-0.001220703125,0.87127685546875,-0.03125,-0.9091796875,0.5380859375
1543517453.5601223,-6.0,-1.0,15.0,20.0,0.0,-3.0,8.0,-3.0,-0.4903564453125,0.02130126953125,-0.00164794921875,0.8712158203125,-0.041015625,-0.8857421875,0.52490234375
1543517453.5670972,-1.0,-6.0,-6.0,-9.0,-2.0,-6.0,2.0,-9.0,-0.49072265625,0.02105712890625,-0.001708984375,0.87103271484375,-0.03955078125,-0.90771484375,0.5302734375
1543517453.583107,1.0,-4.0,-14.0,-41.0,-6.0,-4.0,-21.0,-13.0,-0.49072265625,0.02105712890625,-0.001708984375,0.87103271484375,-0.03955078125,-0.90771484375,0.5302734375
1543517453.5890834,16.0,0.0,-12.0,-2.0,5.0,7.0,9.0,-5.0,-0.49090576171875,0.02093505859375,-0.00201416015625,0.8709716796875,-0.03369140625,-0.90869140625,0.54443359375
1543517453.6060746,-13.0,-8.0,-2.0,-23.0,-3.0,1.0,-23.0,-28.0,-0.49090576171875,0.02093505859375,-0.00201416015625,0.8709716796875,-0.03369140625,-0.90869140625,0.54443359375
1543517453.6210654,-2.0,-6.0,-11.0,-6.0,-1.0,3.0,60.0,26.0,-0.4910888671875,0.02099609375,-0.00238037109375,0.870849609375,-0.04150390625,-0.89599609375,0.54638671875
1543517453.6280615,-13.0,1.0,20.0,16.0,-1.0,-4.0,-17.0,9.0,-0.4910888671875,0.02099609375,-0.00238037109375,0.870849609375,-0.04150390625,-0.89599609375,0.54638671875
1543517453.643054,5.0,-3.0,-18.0,-23.0,-1.0,8.0,53.0,6.0,-0.4913330078125,0.02099609375,-0.00274658203125,0.8707275390625,-0.03662109375,-0.9052734375,0.55126953125
1543517453.6500485,-2.0,1.0,0.0,18.0,-1.0,-3.0,4.0,0.0,-0.49163818359375,0.02105712890625,-0.0028076171875,0.87054443359375,-0.04345703125,-0.9111328125,0.55126953125
1543517453.6660397,2.0,1.0,-3.0,9.0,4.0,-1.0,-17.0,-5.0,-0.49163818359375,0.02105712890625,-0.0028076171875,0.87054443359375,-0.04345703125,-0.9111328125,0.55126953125
1543517453.6801035,-20.0,-2.0,0.0,11.0,7.0,-6.0,-20.0,22.0,-0.49163818359375,0.02105712890625,-0.0028076171875,0.87054443359375,-0.0400390625,-0.91552734375,0.552734375
1543517453.6870282,6.0,1.0,8.0,18.0,0.0,-9.0,-31.0,-1.0,-0.49163818359375,0.0211181640625,-0.0028076171875,0.87054443359375,-0.04443359375,-0.91015625,0.54931640625
1543517453.7030199,5.0,0.0,-3.0,-8.0,-6.0,4.0,10.0,-8.0,-0.49163818359375,0.0211181640625,-0.0028076171875,0.87054443359375,-0.04443359375,-0.91015625,0.54931640625
1543517453.7100158,-12.0,0.0,-4.0,2.0,-5.0,-7.0,-33.0,-32.0,-0.49163818359375,0.0211181640625,-0.0028076171875,0.87054443359375,-0.0419921875,-0.91162109375,0.53759765625
1543517453.726006,5.0,2.0,4.0,15.0,6.0,8.0,51.0,26.0,-0.49163818359375,0.0211181640625,-0.0028076171875,0.87054443359375,-0.0419921875,-0.91162109375,0.53759765625
1543517453.7400494,2.0,1.0,-7.0,-5.0,0.0,0.0,9.0,9.0,-0.49169921875,0.0211181640625,-0.0028076171875,0.8704833984375,-0.03857421875,-0.9052734375,0.5400390625
1543517453.7469938,-3.0,-2.0,-3.0,4.0,-2.0,-1.0,-7.0,11.0,-0.49163818359375,0.0211181640625,-0.0028076171875,0.8704833984375,-0.03125,-0.90380859375,0.54736328125
1543517453.7629862,4.0,0.0,1.0,2.0,-1.0,-2.0,25.0,-1.0,-0.49163818359375,0.0211181640625,-0.0028076171875,0.8704833984375,-0.03125,-0.90380859375,0.54736328125
1543517453.769981,-8.0,-6.0,-8.0,-15.0,-3.0,-1.0,-16.0,15.0,-0.49163818359375,0.0211181640625,-0.0028076171875,0.87054443359375,-0.03564453125,-0.89990234375,0.5458984375
1543517453.7859716,1.0,-2.0,1.0,-12.0,-8.0,-2.0,10.0,-34.0,-0.49163818359375,0.0211181640625,-0.0028076171875,0.87054443359375,-0.03564453125,-0.89990234375,0.5458984375
1543517453.800021,-1.0,-3.0,-1.0,-25.0,-15.0,-6.0,-38.0,15.0,-0.4918212890625,0.02117919921875,-0.0028076171875,0.87042236328125,-0.03173828125,-0.91064453125,0.54736328125
1543517453.8069746,5.0,1.0,-1.0,0.0,7.0,5.0,35.0,20.0,-0.4918212890625,0.02117919921875,-0.0028076171875,0.87042236328125,-0.03076171875,-0.9052734375,0.54443359375
1543517453.822956,2.0,2.0,4.0,19.0,2.0,-2.0,-28.0,-14.0,-0.4918212890625,0.02117919921875,-0.0028076171875,0.87042236328125,-0.03076171875,-0.9052734375,0.54443359375
1543517453.8299456,-3.0,-1.0,-10.0,-24.0,-2.0,-2.0,-5.0,-13.0,-0.4918212890625,0.02117919921875,-0.0028076171875,0.87042236328125,-0.033203125,-0.89892578125,0.5478515625
1543517453.8459408,1.0,-1.0,2.0,28.0,1.0,4.0,6.0,19.0,-0.4918212890625,0.02117919921875,-0.0028076171875,0.87042236328125,-0.033203125,-0.89892578125,0.5478515625
1543517453.8599832,3.0,-4.0,-5.0,12.0,5.0,9.0,11.0,-1.0,-0.4920654296875,0.02099609375,-0.002685546875,0.87030029296875,-0.03125,-0.90966796875,0.53369140625
1543517453.8669248,-2.0,-2.0,4.0,6.0,-5.0,-9.0,-23.0,-22.0,-0.49176025390625,0.0208740234375,-0.0025634765625,0.8704833984375,-0.0380859375,-0.89892578125,0.533203125
1543517453.890912,-3.0,-2.0,-6.0,-3.0,-1.0,-2.0,-23.0,-6.0,-0.49176025390625,0.0208740234375,-0.0025634765625,0.8704833984375,-0.0380859375,-0.89892578125,0.533203125
1543517453.9059062,-1.0,-2.0,-2.0,1.0,2.0,-3.0,5.0,0.0,-0.49163818359375,0.02069091796875,-0.00238037109375,0.87054443359375,-0.03466796875,-0.892578125,0.53955078125
1543517453.919949,-2.0,0.0,0.0,-6.0,-1.0,2.0,-2.0,13.0,-0.49151611328125,0.0205078125,-0.00225830078125,0.87060546875,-0.041015625,-0.89794921875,0.54931640625
1543517453.9279103,-1.0,-3.0,-3.0,-8.0,0.0,0.0,7.0,-4.0,-0.4912109375,0.0203857421875,-0.002197265625,0.87078857421875,-0.03515625,-0.8955078125,0.5419921875
1543517453.9428809,-4.0,-1.0,4.0,9.0,0.0,-8.0,-7.0,-5.0,-0.4912109375,0.0203857421875,-0.002197265625,0.87078857421875,-0.03515625,-0.8955078125,0.5419921875
1543517453.9498768,0.0,-2.0,-4.0,-13.0,-3.0,1.0,1.0,-4.0,-0.49102783203125,0.0201416015625,-0.002197265625,0.87091064453125,-0.0322265625,-0.8994140625,0.54541015625
1543517453.965872,-1.0,-2.0,-5.0,-12.0,-1.0,-5.0,-17.0,-10.0,-0.49102783203125,0.0201416015625,-0.002197265625,0.87091064453125,-0.0322265625,-0.8994140625,0.54541015625
1543517453.9799142,1.0,0.0,-3.0,-8.0,-1.0,-3.0,-8.0,-6.0,-0.49072265625,0.01983642578125,-0.001953125,0.87109375,-0.03759765625,-0.9013671875,0.54150390625
1543517453.9868555,-3.0,-4.0,2.0,-2.0,-2.0,-4.0,-5.0,-4.0,-0.490234375,0.01953125,-0.001708984375,0.871337890625,-0.033203125,-0.89599609375,0.5498046875
1543517454.0028467,-5.0,-1.0,-1.0,-4.0,-6.0,-5.0,-4.0,-5.0,-0.490234375,0.01953125,-0.001708984375,0.871337890625,-0.033203125,-0.89599609375,0.5498046875
1543517454.0098422,-1.0,-1.0,3.0,9.0,-2.0,-5.0,-5.0,-2.0,-0.4893798828125,0.01922607421875,-0.00140380859375,0.871826171875,-0.033203125,-0.8935546875,0.55224609375
1543517454.025855,0.0,-1.0,-4.0,-4.0,-4.0,-1.0,-3.0,-3.0,-0.4893798828125,0.01922607421875,-0.00140380859375,0.871826171875,-0.033203125,-0.8935546875,0.55224609375
1543517454.0398254,-2.0,-4.0,-2.0,-5.0,-4.0,-1.0,-3.0,-2.0,-0.48956298828125,0.01904296875,-0.0009765625,0.8717041015625,-0.05126953125,-0.93115234375,0.5361328125
1543517454.0478213,1.0,-1.0,-5.0,-13.0,-3.0,0.0,-1.0,3.0,-0.48956298828125,0.01904296875,-0.0009765625,0.8717041015625,-0.05126953125,-0.93115234375,0.5361328125
1543517454.0618143,-1.0,2.0,3.0,9.0,5.0,5.0,0.0,-3.0,-0.4886474609375,0.01861572265625,-0.000732421875,0.87225341796875,-0.033203125,-0.90966796875,0.54052734375
1543517454.0698078,-2.0,3.0,-7.0,0.0,-2.0,-7.0,-11.0,-4.0,-0.4886474609375,0.01861572265625,-0.000732421875,0.87225341796875,-0.033203125,-0.90966796875,0.54052734375
1543517454.087798,0.0,-4.0,-5.0,-11.0,-1.0,-4.0,-2.0,-3.0,-0.4879150390625,0.01824951171875,-0.00030517578125,0.8726806640625,-0.03955078125,-0.89013671875,0.54443359375
1543517454.0997906,-2.0,-1.0,1.0,5.0,2.0,4.0,6.0,-2.0,-0.4871826171875,0.01788330078125,0.00018310546875,0.87310791015625,-0.029296875,-0.88818359375,0.55615234375
1543517454.1077874,-1.0,-2.0,4.0,8.0,-2.0,0.0,18.0,1.0,-0.4871826171875,0.01788330078125,0.00018310546875,0.87310791015625,-0.029296875,-0.88818359375,0.55615234375
1543517454.1227803,1.0,-1.0,-2.0,-10.0,3.0,-3.0,-25.0,-4.0,-0.48681640625,0.01763916015625,0.0006103515625,0.873291015625,-0.03759765625,-0.90283203125,0.54443359375
1543517454.1297743,2.0,2.0,16.0,15.0,3.0,-3.0,1.0,-3.0,-0.48590087890625,0.017333984375,0.00079345703125,0.87384033203125,-0.02734375,-0.88427734375,0.55322265625
1543517454.1457822,-3.0,-4.0,-2.0,11.0,-5.0,0.0,7.0,-1.0,-0.48590087890625,0.017333984375,0.00079345703125,0.87384033203125,-0.02734375,-0.88427734375,0.55322265625
1543517454.159759,0.0,-2.0,-1.0,-7.0,0.0,-1.0,-4.0,0.0,-0.48541259765625,0.0169677734375,0.0008544921875,0.87408447265625,-0.02783203125,-0.890625,0.55810546875
1543517454.1677704,0.0,-2.0,-2.0,-3.0,-5.0,1.0,3.0,0.0,-0.48541259765625,0.0169677734375,0.0008544921875,0.87408447265625,-0.02783203125,-0.890625,0.55810546875
1543517454.1827476,-3.0,0.0,0.0,-10.0,-3.0,-2.0,-1.0,-1.0,-0.4847412109375,0.0164794921875,0.00103759765625,0.87445068359375,-0.02587890625,-0.892578125,0.5751953125
1543517454.1897397,-1.0,-2.0,-2.0,5.0,0.0,1.0,1.0,-3.0,-0.48431396484375,0.01605224609375,0.00140380859375,0.874755859375,-0.02783203125,-0.89697265625,0.55859375
1543517454.2057943,0.0,-4.0,-3.0,-3.0,-4.0,-3.0,0.0,-4.0,-0.48431396484375,0.01605224609375,0.00140380859375,0.874755859375,-0.02783203125,-0.89697265625,0.55859375
1543517454.2197225,-2.0,-1.0,0.0,5.0,-1.0,-2.0,-3.0,-2.0,-0.48382568359375,0.01556396484375,0.001708984375,0.875,-0.0341796875,-0.90185546875,0.56103515625
1543517454.2277172,1.0,-3.0,0.0,6.0,5.0,6.0,4.0,-1.0,-0.48382568359375,0.01556396484375,0.001708984375,0.875,-0.0341796875,-0.90185546875,0.56103515625
1543517454.2347143,-3.0,-3.0,-3.0,-6.0,2.0,0.0,-2.0,0.0,-0.48321533203125,0.0150146484375,0.00201416015625,0.8753662109375,-0.033203125,-0.8974609375,0.564453125
1543517454.2427084,-2.0,4.0,-3.0,-5.0,-3.0,-5.0,0.0,0.0,-0.48321533203125,0.0150146484375,0.00201416015625,0.8753662109375,-0.033203125,-0.8974609375,0.564453125
1543517454.249705,-1.0,-3.0,-2.0,7.0,0.0,3.0,1.0,0.0,-0.48291015625,0.014404296875,0.00238037109375,0.87554931640625,-0.033203125,-0.90283203125,0.55712890625
1543517454.2657683,-3.0,0.0,6.0,-6.0,-3.0,-1.0,1.0,-3.0,-0.48291015625,0.014404296875,0.00238037109375,0.87554931640625,-0.033203125,-0.90283203125,0.55712890625
1543517454.2796881,1.0,-3.0,-4.0,-2.0,-5.0,0.0,-1.0,-1.0,-0.48272705078125,0.0137939453125,0.0028076171875,0.8756103515625,-0.03466796875,-0.9033203125,0.5546875
1543517454.2876892,-2.0,-3.0,-2.0,0.0,2.0,-4.0,-3.0,-4.0,-0.48272705078125,0.0137939453125,0.0028076171875,0.8756103515625,-0.03466796875,-0.9033203125,0.5546875
