time,emg_1,emg_2,emg_3,emg_4,emg_5,emg_6,emg_7,emg_8,ori_1,ori_2,ori_3,ori_4,acc_1,acc_2,acc_3
0,2.0,1.0,-7.0,35.0,12.0,-1.0,-7.0,-3.0,0.21307373046875,0.54937744140625,0.64892578125,0.481201171875,-0.3291015625,0.8310546875,0.22705078125
1,0.0,4.0,21.0,26.0,4.0,2.0,9.0,3.0,0.214111328125,0.5494384765625,0.64837646484375,0.48138427734375,-0.28076171875,0.82275390625,0.23486328125
2,-1.0,-1.0,-3.0,-65.0,-5.0,0.0,-5.0,-1.0,0.21514892578125,0.5489501953125,0.6480712890625,0.48187255859375,-0.26025390625,0.81884765625,0.2568359375
3,-5.0,-8.0,-19.0,-3.0,-5.0,-5.0,4.0,-4.0,0.2171630859375,0.550048828125,0.6466064453125,0.48175048828125,-0.23828125,0.845703125,0.2470703125
4,1.0,-2.0,-3.0,3.0,-9.0,2.0,-2.0,5.0,0.21929931640625,0.551513671875,0.64520263671875,0.48101806640625,-0.22705078125,0.8955078125,0.2568359375
5,5.0,7.0,17.0,11.0,-3.0,2.0,1.0,1.0,0.22149658203125,0.552978515625,0.64385986328125,0.48004150390625,-0.216796875,0.9326171875,0.26708984375
6,-6.0,-2.0,-10.0,23.0,-1.0,-12.0,-3.0,5.0,0.223388671875,0.55401611328125,0.6429443359375,0.47918701171875,-0.21630859375,0.93212890625,0.29296875
7,1.0,4.0,28.0,15.0,4.0,11.0,-9.0,-5.0,0.2255859375,0.55499267578125,0.642333984375,0.4779052734375,-0.20703125,0.95361328125,0.318359375
8,-4.0,-7.0,-21.0,-29.0,-9.0,-2.0,17.0,-7.0,0.228515625,0.55657958984375,0.64154052734375,0.4757080078125,-0.1943359375,1.00341796875,0.27734375
9,-1.0,3.0,9.0,17.0,-5.0,-1.0,4.0,0.0,0.2298583984375,0.5555419921875,0.64337158203125,0.4737548828125,-0.22265625,0.98828125,0.328125
10,-2.0,1.0,9.0,2.0,1.0,-3.0,-7.0,-6.0,0.2308349609375,0.55291748046875,0.64691162109375,0.4715576171875,-0.2177734375,0.9482421875,0.3515625
11,2.0,3.0,9.0,6.0,-1.0,1.0,-3.0,-1.0,0.2314453125,0.5504150390625,0.6510009765625,0.46856689453125,-0.20263671875,0.94287109375,0.35205078125
12,-1.0,-2.0,4.0,-2.0,-2.0,2.0,-7.0,3.0,0.23114013671875,0.548583984375,0.6551513671875,0.46502685546875,-0.20849609375,0.98974609375,0.365234375
13,-2.0,-3.0,-18.0,8.0,-5.0,1.0,-15.0,-1.0,0.2296142578125,0.54803466796875,0.65863037109375,0.46148681640625,-0.24072265625,0.98291015625,0.34814453125
14,-4.0,-2.0,5.0,-3.0,2.0,2.0,-7.0,-5.0,0.22686767578125,0.54876708984375,0.6611328125,0.45843505859375,-0.26708984375,0.9951171875,0.33154296875
15,1.0,-2.0,-10.0,-48.0,-15.0,0.0,0.0,-3.0,0.22259521484375,0.54998779296875,0.66351318359375,0.45562744140625,-0.2958984375,1.00390625,0.31396484375
16,-1.0,1.0,32.0,26.0,-1.0,-4.0,-6.0,4.0,0.21722412109375,0.55108642578125,0.6658935546875,0.453369140625,-0.31494140625,0.97021484375,0.3125
17,-2.0,1.0,-34.0,-22.0,-5.0,-4.0,-4.0,-10.0,0.21087646484375,0.5528564453125,0.66802978515625,0.451171875,-0.30224609375,0.98974609375,0.29833984375
18,2.0,-2.0,-5.0,-17.0,0.0,3.0,8.0,-1.0,0.2034912109375,0.55419921875,0.6705322265625,0.4490966796875,-0.3037109375,1.03662109375,0.31298828125
19,-5.0,-1.0,-3.0,31.0,4.0,-6.0,-3.0,3.0,0.19622802734375,0.55548095703125,0.672119140625,0.4483642578125,-0.2958984375,0.98681640625,0.318359375
20,-2.0,-2.0,-6.0,-29.0,1.0,-2.0,-9.0,-2.0,0.18829345703125,0.55767822265625,0.671875,0.44940185546875,-0.26611328125,0.97265625,0.3056640625
21,2.0,3.0,19.0,60.0,7.0,1.0,22.0,7.0,0.17877197265625,0.56121826171875,0.670166015625,0.4515380859375,-0.28857421875,0.96630859375,0.2939453125
22,-2.0,-6.0,-16.0,-12.0,-12.0,-5.0,-25.0,-5.0,0.16851806640625,0.56597900390625,0.66741943359375,0.4534912109375,-0.2890625,0.9912109375,0.2734375
23,-6.0,-2.0,-5.0,-9.0,-7.0,5.0,11.0,0.0,0.15618896484375,0.57000732421875,0.66552734375,0.4556884765625,-0.3095703125,0.93310546875,0.30029296875
24,-2.0,-4.0,2.0,18.0,-6.0,-17.0,-14.0,-9.0,0.14404296875,0.57427978515625,0.663330078125,0.45745849609375,-0.30810546875,0.9072265625,0.283203125
25,1.0,-2.0,4.0,-7.0,16.0,6.0,-1.0,1.0,0.1322021484375,0.57818603515625,0.66107177734375,0.45941162109375,-0.31005859375,0.92431640625,0.28369140625
26,0.0,-2.0,-3.0,-21.0,-8.0,5.0,1.0,-4.0,0.12005615234375,0.58148193359375,0.65924072265625,0.46124267578125,-0.3134765625,0.912109375,0.26806640625
27,-3.0,-2.0,4.0,-2.0,2.0,3.0,-3.0,5.0,0.1077880859375,0.5845947265625,0.6575927734375,0.46270751953125,-0.33056640625,0.875,0.2626953125
28,0.0,1.0,-6.0,3.0,-6.0,0.0,0.0,-1.0,0.09619140625,0.58746337890625,0.65594482421875,0.4639892578125,-0.3603515625,0.86962890625,0.28564453125
29,0.0,-3.0,1.0,19.0,-3.0,-5.0,-4.0,0.0,0.0849609375,0.58966064453125,0.65484619140625,0.4649658203125,-0.3837890625,0.84765625,0.2939453125
30,-1.0,-1.0,-5.0,-51.0,-2.0,-6.0,0.0,-2.0,0.07427978515625,0.5911865234375,0.654052734375,0.4658203125,-0.41015625,0.83935546875,0.30859375
31,3.0,-1.0,-2.0,-57.0,-4.0,2.0,5.0,-4.0,0.064208984375,0.59246826171875,0.65350341796875,0.46661376953125,-0.4375,0.83251953125,0.30908203125
32,0.0,-1.0,-1.0,31.0,12.0,-4.0,5.0,1.0,0.0552978515625,0.59320068359375,0.653076171875,0.4674072265625,-0.46240234375,0.81884765625,0.310546875
33,0.0,-1.0,7.0,34.0,-2.0,3.0,-4.0,2.0,0.04766845703125,0.59393310546875,0.652587890625,0.4678955078125,-0.453125,0.81298828125,0.29638671875
34,-2.0,2.0,6.0,1.0,15.0,-3.0,-5.0,-9.0,0.0399169921875,0.59417724609375,0.65289306640625,0.46795654296875,-0.47705078125,0.81689453125,0.31689453125
35,3.0,0.0,-8.0,-25.0,-4.0,-1.0,0.0,6.0,0.03253173828125,0.5938720703125,0.65362548828125,0.4678955078125,-0.4970703125,0.80859375,0.32275390625
36,-2.0,3.0,3.0,22.0,-5.0,-5.0,-10.0,-8.0,0.025390625,0.59295654296875,0.65521240234375,0.46728515625,-0.50146484375,0.8134765625,0.3203125
37,7.0,0.0,7.0,14.0,20.0,9.0,9.0,16.0,0.0177001953125,0.591552734375,0.65753173828125,0.46612548828125,-0.5146484375,0.79443359375,0.33251953125
38,-5.0,-3.0,-3.0,11.0,-4.0,-9.0,-8.0,-12.0,0.009765625,0.590087890625,0.6602783203125,0.46435546875,-0.53173828125,0.79931640625,0.337890625
39,1.0,0.0,1.0,10.0,5.0,4.0,-14.0,0.0,0.00225830078125,0.58795166015625,0.6630859375,0.463134765625,-0.55322265625,0.796875,0.3271484375
40,-2.0,-3.0,-8.0,10.0,-7.0,1.0,-4.0,-18.0,-0.00372314453125,0.58563232421875,0.66583251953125,0.462158203125,-0.5595703125,0.78955078125,0.30029296875
41,7.0,-2.0,-1.0,-61.0,-7.0,-6.0,15.0,26.0,-0.00836181640625,0.58319091796875,0.6680908203125,0.46185302734375,-0.56005859375,0.76953125,0.28271484375
42,-22.0,-3.0,-2.0,87.0,6.0,-12.0,-9.0,2.0,-0.011474609375,0.58148193359375,0.6693115234375,0.46221923828125,-0.5302734375,0.76220703125,0.26806640625
43,-3.0,-3.0,5.0,83.0,-3.0,-8.0,13.0,3.0,-0.01361083984375,0.580322265625,0.66998291015625,0.46270751953125,-0.51220703125,0.7724609375,0.26953125
44,-5.0,-3.0,-9.0,-79.0,16.0,12.0,2.0,-1.0,-0.01568603515625,0.5797119140625,0.6700439453125,0.46319580078125,-0.51220703125,0.7734375,0.2783203125
45,-1.0,2.0,-1.0,-9.0,6.0,-5.0,-15.0,-7.0,-0.0179443359375,0.57904052734375,0.66986083984375,0.4642333984375,-0.5419921875,0.75537109375,0.31103515625
46,9.0,-1.0,-6.0,-40.0,-23.0,7.0,10.0,8.0,-0.0198974609375,0.578125,0.669677734375,0.46563720703125,-0.55029296875,0.74267578125,0.33642578125
47,0.0,0.0,22.0,110.0,19.0,-4.0,-18.0,-5.0,-0.02117919921875,0.57733154296875,0.66925048828125,0.4671630859375,-0.5478515625,0.74462890625,0.33544921875
48,-5.0,1.0,3.0,-46.0,-6.0,3.0,5.0,3.0,-0.0220947265625,0.57647705078125,0.66876220703125,0.46881103515625,-0.5537109375,0.74951171875,0.35693359375
49,-9.0,-8.0,-18.0,-42.0,0.0,-13.0,-12.0,-25.0,-0.02276611328125,0.57562255859375,0.6683349609375,0.47052001953125,-0.54443359375,0.76123046875,0.35400390625
50,3.0,2.0,8.0,13.0,-27.0,14.0,16.0,2.0,-0.023193359375,0.5755615234375,0.66729736328125,0.4720458984375,-0.587890625,0.78857421875,0.32421875
51,-4.0,-9.0,-14.0,-12.0,-9.0,-22.0,-14.0,-18.0,-0.0230712890625,0.573974609375,0.6669921875,0.474365234375,-0.611328125,0.72021484375,0.373046875
52,3.0,2.0,1.0,9.0,-10.0,-15.0,4.0,5.0,-0.021484375,0.5721435546875,0.66693115234375,0.47674560546875,-0.5751953125,0.75146484375,0.375
53,-1.0,3.0,1.0,8.0,-5.0,5.0,-2.0,-2.0,-0.0201416015625,0.5704345703125,0.66644287109375,0.4794921875,-0.556640625,0.7578125,0.37548828125
54,-4.0,-2.0,0.0,15.0,7.0,-5.0,7.0,1.0,-0.01953125,0.5689697265625,0.66522216796875,0.48297119140625,-0.5576171875,0.79736328125,0.34765625
55,6.0,4.0,-8.0,-65.0,-1.0,6.0,2.0,1.0,-0.02032470703125,0.5677490234375,0.66357421875,0.4866943359375,-0.5908203125,0.8125,0.3427734375
56,0.0,-2.0,2.0,49.0,4.0,6.0,3.0,0.0,-0.021728515625,0.56719970703125,0.6624755859375,0.48870849609375,-0.58447265625,0.787109375,0.33056640625
57,-4.0,-1.0,-5.0,11.0,-18.0,-11.0,3.0,-4.0,-0.02496337890625,0.565185546875,0.66259765625,0.49066162109375,-0.57080078125,0.7548828125,0.3916015625
58,3.0,3.0,-5.0,-27.0,-3.0,0.0,-4.0,7.0,-0.0284423828125,0.56427001953125,0.66168212890625,0.49285888671875,-0.568359375,0.84033203125,0.359375
59,-4.0,-2.0,4.0,53.0,9.0,-1.0,6.0,4.0,-0.03369140625,0.5635986328125,0.65972900390625,0.495849609375,-0.58837890625,0.8037109375,0.3701171875
60,-1.0,-3.0,-13.0,-43.0,13.0,19.0,-12.0,-6.0,-0.0404052734375,0.56378173828125,0.65631103515625,0.49969482421875,-0.64794921875,0.736328125,0.39599609375
61,-2.0,-3.0,1.0,-15.0,-13.0,-4.0,4.0,-16.0,-0.047607421875,0.56494140625,0.651611328125,0.50384521484375,-0.6806640625,0.6376953125,0.376953125
62,3.0,2.0,1.0,22.0,14.0,-2.0,-3.0,7.0,-0.05340576171875,0.56695556640625,0.646728515625,0.50732421875,-0.67578125,0.69287109375,0.33203125
63,3.0,-1.0,-8.0,-47.0,-10.0,-3.0,-3.0,3.0,-0.05950927734375,0.56768798828125,0.6435546875,0.5098876953125,-0.6962890625,0.6494140625,0.31640625
64,-3.0,-2.0,2.0,13.0,-4.0,-6.0,8.0,3.0,-0.06500244140625,0.5679931640625,0.641357421875,0.5115966796875,-0.68701171875,0.587890625,0.30859375
65,-3.0,-3.0,-10.0,-61.0,-11.0,-2.0,0.0,-4.0,-0.0692138671875,0.5687255859375,0.63970947265625,0.51226806640625,-0.6767578125,0.51708984375,0.2275390625
66,-5.0,0.0,7.0,14.0,10.0,2.0,0.0,-11.0,-0.0701904296875,0.56781005859375,0.6414794921875,0.51092529296875,-0.5283203125,0.50244140625,0.2509765625
67,5.0,7.0,7.0,14.0,10.0,0.0,0.0,4.0,-0.066162109375,0.56463623046875,0.64837646484375,0.5062255859375,-0.28369140625,0.35986328125,0.29931640625
68,0.0,-4.0,-24.0,-72.0,-26.0,-4.0,-10.0,0.0,-0.05523681640625,0.56451416015625,0.65185546875,0.50323486328125,-0.4345703125,0.59814453125,0.25146484375
69,-8.0,-6.0,22.0,96.0,10.0,-17.0,-8.0,-3.0,-0.0439453125,0.56591796875,0.651123046875,0.503662109375,-0.6376953125,0.73779296875,0.17919921875
70,4.0,-1.0,-4.0,-25.0,-3.0,6.0,-1.0,0.0,-0.0341796875,0.56683349609375,0.6500244140625,0.50494384765625,-0.7080078125,0.78662109375,0.224609375
71,-10.0,-5.0,-3.0,5.0,5.0,-4.0,-9.0,-6.0,-0.0244140625,0.56591796875,0.650390625,0.50592041015625,-0.62744140625,0.7392578125,0.3193359375
72,9.0,3.0,2.0,-49.0,-6.0,1.0,17.0,9.0,-0.01416015625,0.563232421875,0.65264892578125,0.5064697265625,-0.58203125,0.63916015625,0.41015625
73,0.0,1.0,-4.0,-1.0,-5.0,9.0,-5.0,1.0,-0.00201416015625,0.5611572265625,0.6544189453125,0.5067138671875,-0.56787109375,0.62841796875,0.43359375
74,-3.0,-6.0,-3.0,5.0,-7.0,-7.0,1.0,-4.0,0.01171875,0.56048583984375,0.65521240234375,0.5062255859375,-0.58642578125,0.7314453125,0.41015625
75,-7.0,0.0,5.0,2.0,-4.0,13.0,-1.0,1.0,0.025390625,0.55999755859375,0.65625,0.5050048828125,-0.58154296875,0.822265625,0.37939453125
76,0.0,-4.0,-5.0,33.0,0.0,-11.0,-18.0,-3.0,0.0374755859375,0.5579833984375,0.65838623046875,0.50360107421875,-0.59912109375,0.81396484375,0.38818359375
77,0.0,1.0,-5.0,-9.0,-3.0,7.0,1.0,3.0,0.04913330078125,0.55523681640625,0.66156005859375,0.50152587890625,-0.55078125,0.7822265625,0.42724609375
78,0.0,0.0,10.0,91.0,11.0,-5.0,-4.0,-1.0,0.06048583984375,0.55303955078125,0.66455078125,0.498779296875,-0.478515625,0.79931640625,0.4423828125
79,4.0,0.0,-12.0,-45.0,-13.0,4.0,19.0,-8.0,0.070556640625,0.55169677734375,0.66668701171875,0.49603271484375,-0.4765625,0.8671875,0.43798828125
80,-4.0,-1.0,8.0,48.0,6.0,8.0,3.0,-3.0,0.07861328125,0.55084228515625,0.66851806640625,0.4932861328125,-0.447265625,0.91064453125,0.4541015625
81,3.0,-2.0,-2.0,-24.0,-8.0,-15.0,-4.0,17.0,0.083984375,0.55059814453125,0.669921875,0.4908447265625,-0.4443359375,0.9130859375,0.45947265625
82,-5.0,0.0,4.0,-30.0,1.0,0.0,-3.0,-31.0,0.087890625,0.55096435546875,0.67022705078125,0.4892578125,-0.44140625,0.90380859375,0.46435546875
83,0.0,-3.0,-4.0,1.0,7.0,0.0,-1.0,1.0,0.09063720703125,0.5521240234375,0.66949462890625,0.48846435546875,-0.43310546875,0.89501953125,0.46337890625
84,-9.0,-4.0,3.0,79.0,11.0,3.0,11.0,-17.0,0.09222412109375,0.55389404296875,0.668212890625,0.4879150390625,-0.44677734375,0.9013671875,0.44287109375
85,5.0,0.0,0.0,-29.0,0.0,-2.0,5.0,5.0,0.09307861328125,0.55523681640625,0.66754150390625,0.48712158203125,-0.4228515625,0.91015625,0.4267578125
86,2.0,2.0,-7.0,-25.0,-7.0,-3.0,-1.0,12.0,0.09368896484375,0.55596923828125,0.6676025390625,0.48614501953125,-0.4013671875,0.900390625,0.38818359375
87,0.0,-3.0,2.0,27.0,13.0,2.0,-4.0,-3.0,0.093994140625,0.5560302734375,0.66839599609375,0.48486328125,-0.38818359375,0.85107421875,0.38134765625
88,-7.0,-4.0,-6.0,-26.0,-22.0,-9.0,-2.0,-3.0,0.0947265625,0.5560302734375,0.670166015625,0.4822998046875,-0.3671875,0.8134765625,0.3583984375
89,1.0,0.0,-5.0,-33.0,3.0,8.0,-3.0,-7.0,0.0966796875,0.5557861328125,0.67236328125,0.47918701171875,-0.34716796875,0.796875,0.35302734375
90,-1.0,-2.0,-10.0,-46.0,-4.0,-10.0,19.0,4.0,0.09942626953125,0.55609130859375,0.67413330078125,0.4757080078125,-0.34814453125,0.8037109375,0.3291015625
91,-5.0,-3.0,2.0,60.0,6.0,1.0,-28.0,-11.0,0.10247802734375,0.55621337890625,0.67626953125,0.471923828125,-0.345703125,0.76123046875,0.322265625
92,-1.0,3.0,6.0,5.0,10.0,3.0,3.0,7.0,0.10693359375,0.5560302734375,0.67840576171875,0.468017578125,-0.33740234375,0.7890625,0.31787109375
93,-4.0,-1.0,1.0,47.0,-2.0,-7.0,-18.0,-12.0,0.11279296875,0.5556640625,0.68023681640625,0.4644775390625,-0.3505859375,0.7919921875,0.30859375
94,2.0,-1.0,-4.0,1.0,2.0,10.0,26.0,14.0,0.11993408203125,0.55535888671875,0.68157958984375,0.46099853515625,-0.3349609375,0.87890625,0.26904296875
95,-5.0,-3.0,-8.0,-30.0,-20.0,-10.0,4.0,-2.0,0.1260986328125,0.55401611328125,0.68402099609375,0.45733642578125,-0.32421875,0.853515625,0.36279296875
96,4.0,-2.0,1.0,3.0,3.0,-6.0,6.0,1.0,0.13348388671875,0.5537109375,0.6844482421875,0.4549560546875,-0.3330078125,0.89013671875,0.3466796875
97,-8.0,-6.0,-4.0,5.0,0.0,3.0,-17.0,-34.0,0.1400146484375,0.55462646484375,0.68402099609375,0.4525146484375,-0.35986328125,0.953125,0.33154296875
98,-2.0,3.0,5.0,3.0,5.0,-3.0,-11.0,1.0,0.145263671875,0.55499267578125,0.684814453125,0.44921875,-0.33544921875,0.91162109375,0.38232421875
99,1.0,0.0,-1.0,-1.0,-8.0,2.0,-7.0,6.0,0.1497802734375,0.55560302734375,0.68548583984375,0.4459228515625,-0.35791015625,0.93408203125,0.36328125
100,1.0,1.0,0.0,-4.0,-8.0,-2.0,-6.0,4.0,0.152587890625,0.55572509765625,0.6871337890625,0.44232177734375,-0.35693359375,0.9521484375,0.38330078125
101,1.0,1.0,-6.0,-11.0,11.0,10.0,14.0,6.0,0.15478515625,0.55694580078125,0.6881103515625,0.43841552734375,-0.32666015625,0.97216796875,0.35009765625
102,-6.0,-3.0,8.0,25.0,1.0,-4.0,-16.0,-10.0,0.1552734375,0.55816650390625,0.68939208984375,0.43475341796875,-0.337890625,0.93115234375,0.3525390625
103,6.0,-1.0,0.0,-9.0,4.0,-2.0,4.0,3.0,0.15496826171875,0.55908203125,0.6907958984375,0.431396484375,-0.33935546875,0.90966796875,0.3623046875
104,2.0,-1.0,-10.0,-76.0,-12.0,-4.0,-1.0,3.0,0.15618896484375,0.5609130859375,0.69036865234375,0.42919921875,-0.31640625,0.93701171875,0.31005859375
105,-2.0,1.0,12.0,81.0,6.0,5.0,4.0,1.0,0.15570068359375,0.56146240234375,0.69097900390625,0.427734375,-0.31982421875,0.9619140625,0.3388671875
106,-2.0,-1.0,-4.0,-37.0,-4.0,0.0,0.0,-2.0,0.15484619140625,0.56231689453125,0.6907958984375,0.42730712890625,-0.3125,0.95849609375,0.33251953125
107,0.0,-1.0,-5.0,6.0,-11.0,-6.0,-6.0,-6.0,0.153564453125,0.56341552734375,0.69012451171875,0.42730712890625,-0.31005859375,0.9521484375,0.33837890625
108,-4.0,1.0,2.0,20.0,14.0,4.0,9.0,-2.0,0.15240478515625,0.56494140625,0.6888427734375,0.42779541015625,-0.3017578125,0.947265625,0.328125
109,1.0,-1.0,-2.0,-12.0,-9.0,-1.0,15.0,6.0,0.1519775390625,0.56646728515625,0.68701171875,0.42889404296875,-0.30322265625,0.9892578125,0.30029296875
110,4.0,3.0,-1.0,13.0,-2.0,12.0,-23.0,1.0,0.1500244140625,0.5657958984375,0.68719482421875,0.43017578125,-0.29443359375,0.935546875,0.345703125
111,-3.0,-4.0,-2.0,-51.0,-2.0,-23.0,-3.0,-12.0,0.147705078125,0.56524658203125,0.6875,0.43115234375,-0.27001953125,0.98974609375,0.353515625
112,-5.0,-2.0,0.0,36.0,11.0,0.0,4.0,3.0,0.14422607421875,0.56536865234375,0.68719482421875,0.43267822265625,-0.2880859375,0.98828125,0.35888671875
113,-4.0,-2.0,-2.0,-26.0,-10.0,-3.0,0.0,10.0,0.13897705078125,0.565185546875,0.6871337890625,0.4346923828125,-0.35546875,1.0205078125,0.38623046875
114,5.0,-2.0,2.0,47.0,1.0,-4.0,14.0,3.0,0.1319580078125,0.56378173828125,0.6888427734375,0.43603515625,-0.3466796875,0.9384765625,0.439453125
115,-4.0,-1.0,0.0,-39.0,-6.0,17.0,10.0,-9.0,0.12353515625,0.56121826171875,0.69097900390625,0.4383544921875,-0.39111328125,0.91162109375,0.48876953125
116,3.0,-3.0,6.0,29.0,2.0,-31.0,1.0,10.0,0.114013671875,0.560302734375,0.69134521484375,0.4415283203125,-0.44287109375,0.93310546875,0.43212890625
117,-7.0,-3.0,-16.0,-37.0,3.0,3.0,-15.0,-14.0,0.1025390625,0.55975341796875,0.69140625,0.44500732421875,-0.5498046875,0.89990234375,0.42431640625
118,2.0,-1.0,-9.0,-38.0,-6.0,-4.0,-4.0,16.0,0.09100341796875,0.55767822265625,0.69305419921875,0.44744873046875,-0.61279296875,0.8720703125,0.44140625
119,0.0,10.0,25.0,26.0,5.0,4.0,1.0,-18.0,0.08184814453125,0.55548095703125,0.69537353515625,0.44842529296875,-0.54443359375,0.89990234375,0.3935546875
120,3.0,-9.0,-41.0,-17.0,-6.0,1.0,3.0,0.0,0.07366943359375,0.55328369140625,0.6981201171875,0.44830322265625,-0.435546875,0.916015625,0.35205078125
121,-6.0,-4.0,10.0,-3.0,-4.0,6.0,35.0,21.0,0.06298828125,0.550537109375,0.70074462890625,0.44921875,-0.4443359375,0.87353515625,0.37353515625
122,-4.0,-1.0,-12.0,5.0,9.0,-10.0,-1.0,-8.0,0.05194091796875,0.5498046875,0.70123291015625,0.45074462890625,-0.49853515625,0.84619140625,0.36962890625
123,-4.0,-5.0,10.0,-33.0,-10.0,3.0,-18.0,5.0,0.04254150390625,0.55108642578125,0.6995849609375,0.45269775390625,-0.4892578125,0.87158203125,0.36572265625
124,5.0,6.0,11.0,14.0,-3.0,9.0,12.0,0.0,0.0341796875,0.553955078125,0.69671630859375,0.454345703125,-0.41748046875,0.96923828125,0.32421875
125,0.0,7.0,19.0,39.0,-2.0,7.0,-9.0,-7.0,0.02276611328125,0.554931640625,0.69525146484375,0.45611572265625,-0.41552734375,0.93310546875,0.3369140625
126,3.0,-7.0,-11.0,-6.0,3.0,-5.0,-4.0,6.0,0.0091552734375,0.55413818359375,0.6942138671875,0.45916748046875,-0.45947265625,0.81689453125,0.39599609375
127,-8.0,-5.0,-25.0,-30.0,6.0,-12.0,8.0,1.0,-0.00189208984375,0.5555419921875,0.69091796875,0.46246337890625,-0.455078125,0.806640625,0.3798828125
128,1.0,4.0,13.0,8.0,3.0,2.0,-15.0,4.0,-0.0115966796875,0.5587158203125,0.68634033203125,0.46533203125,-0.39892578125,0.85302734375,0.36474609375
129,2.0,1.0,2.0,11.0,-13.0,-5.0,27.0,6.0,-0.0223388671875,0.56097412109375,0.6824951171875,0.4678955078125,-0.423828125,0.8359375,0.36767578125
130,-5.0,-2.0,-9.0,-55.0,-2.0,8.0,-12.0,-19.0,-0.032470703125,0.56243896484375,0.67889404296875,0.47076416015625,-0.44970703125,0.7822265625,0.35498046875
131,2.0,-5.0,-9.0,35.0,-3.0,-3.0,-7.0,-5.0,-0.04052734375,0.563232421875,0.67608642578125,0.47320556640625,-0.4443359375,0.7412109375,0.34912109375
132,-8.0,-3.0,-3.0,10.0,-6.0,-4.0,-24.0,-6.0,-0.047607421875,0.5631103515625,0.6741943359375,0.475341796875,-0.42333984375,0.71875,0.33984375
133,2.0,-3.0,3.0,-35.0,-1.0,-6.0,-5.0,-7.0,-0.05364990234375,0.5623779296875,0.6728515625,0.47747802734375,-0.43798828125,0.69140625,0.3369140625
134,-1.0,1.0,0.0,29.0,-3.0,5.0,1.0,-3.0,-0.05908203125,0.5615234375,0.6717529296875,0.47943115234375,-0.4736328125,0.68212890625,0.34130859375
135,-5.0,-4.0,-7.0,-32.0,6.0,-8.0,8.0,6.0,-0.06365966796875,0.5606689453125,0.67083740234375,0.48114013671875,-0.50146484375,0.68017578125,0.34423828125
136,-4.0,-1.0,6.0,33.0,-3.0,-7.0,-5.0,-4.0,-0.068115234375,0.55963134765625,0.67059326171875,0.48211669921875,-0.51953125,0.6796875,0.34521484375
137,2.0,3.0,3.0,-47.0,-4.0,-6.0,-10.0,-6.0,-0.07293701171875,0.5584716796875,0.670654296875,0.4825439453125,-0.544921875,0.6689453125,0.34765625
138,-10.0,-9.0,-5.0,62.0,-11.0,0.0,12.0,-3.0,-0.0775146484375,0.55767822265625,0.6705322265625,0.48297119140625,-0.5927734375,0.64111328125,0.3466796875
139,1.0,1.0,4.0,4.0,9.0,3.0,-5.0,8.0,-0.0810546875,0.5572509765625,0.6700439453125,0.48358154296875,-0.599609375,0.62841796875,0.35693359375
140,5.0,6.0,-3.0,-36.0,-3.0,11.0,9.0,7.0,-0.08380126953125,0.55706787109375,0.66943359375,0.484130859375,-0.58935546875,0.6376953125,0.35498046875
141,-4.0,-2.0,-3.0,27.0,8.0,-3.0,-38.0,-7.0,-0.08642578125,0.55694580078125,0.66876220703125,0.4847412109375,-0.603515625,0.62548828125,0.359375
142,4.0,1.0,11.0,39.0,-14.0,-10.0,1.0,5.0,-0.08868408203125,0.556640625,0.66827392578125,0.48541259765625,-0.63232421875,0.61328125,0.3623046875
143,3.0,0.0,-2.0,6.0,11.0,13.0,-7.0,16.0,-0.0902099609375,0.5562744140625,0.66796875,0.4859619140625,-0.6474609375,0.60888671875,0.36865234375
144,-1.0,4.0,15.0,38.0,-7.0,-14.0,-5.0,-24.0,-0.09112548828125,0.55596923828125,0.66802978515625,0.48602294921875,-0.642578125,0.62939453125,0.3603515625
145,-1.0,-6.0,-10.0,27.0,5.0,2.0,13.0,12.0,-0.09228515625,0.55548095703125,0.6683349609375,0.4859619140625,-0.65087890625,0.61865234375,0.3720703125
146,0.0,-1.0,4.0,-44.0,-4.0,7.0,-3.0,1.0,-0.09326171875,0.5555419921875,0.66827392578125,0.48577880859375,-0.662109375,0.615234375,0.36767578125
147,-4.0,2.0,7.0,61.0,-12.0,-5.0,-1.0,-4.0,-0.09417724609375,0.5560302734375,0.66796875,0.4854736328125,-0.67578125,0.62158203125,0.36767578125
148,0.0,-3.0,-4.0,-45.0,-4.0,-3.0,-8.0,1.0,-0.094970703125,0.55694580078125,0.66748046875,0.48492431640625,-0.6669921875,0.61572265625,0.36474609375
149,1.0,4.0,1.0,13.0,0.0,0.0,-3.0,8.0,-0.09539794921875,0.5579833984375,0.66705322265625,0.4842529296875,-0.66455078125,0.63671875,0.36669921875
150,-4.0,-4.0,-3.0,-15.0,2.0,-3.0,-7.0,-9.0,-0.0958251953125,0.5589599609375,0.6666259765625,0.483642578125,-0.6650390625,0.63818359375,0.36083984375
151,1.0,1.0,-1.0,4.0,-2.0,-4.0,7.0,-4.0,-0.09613037109375,0.55950927734375,0.66650390625,0.48309326171875,-0.66748046875,0.64306640625,0.3759765625
152,-4.0,-4.0,-13.0,-27.0,0.0,9.0,-3.0,0.0,-0.09619140625,0.55987548828125,0.66656494140625,0.4825439453125,-0.67724609375,0.64599609375,0.37890625
153,-5.0,-2.0,-4.0,10.0,8.0,-6.0,0.0,-14.0,-0.09576416015625,0.55987548828125,0.6671142578125,0.48193359375,-0.67919921875,0.654296875,0.38330078125
154,-5.0,-3.0,-5.0,-39.0,-20.0,-5.0,-9.0,4.0,-0.09466552734375,0.5595703125,0.66778564453125,0.48150634765625,-0.693359375,0.6611328125,0.38623046875
155,7.0,3.0,4.0,-2.0,1.0,12.0,10.0,12.0,-0.09271240234375,0.5594482421875,0.668701171875,0.48077392578125,-0.6669921875,0.6552734375,0.37158203125
156,-4.0,-5.0,-1.0,-16.0,-4.0,-3.0,-14.0,-9.0,-0.09039306640625,0.55877685546875,0.67059326171875,0.47943115234375,-0.64990234375,0.6552734375,0.37890625
157,-1.0,-3.0,-7.0,-55.0,-11.0,-13.0,-5.0,20.0,-0.08673095703125,0.55743408203125,0.67352294921875,0.4775390625,-0.5966796875,0.673828125,0.388671875
158,1.0,1.0,8.0,40.0,8.0,-2.0,8.0,-3.0,-0.08172607421875,0.5550537109375,0.67755126953125,0.47540283203125,-0.54248046875,0.6943359375,0.39697265625
159,-3.0,-4.0,-2.0,15.0,-6.0,-6.0,4.0,-2.0,-0.07427978515625,0.55120849609375,0.6824951171875,0.47406005859375,-0.54248046875,0.69384765625,0.40185546875
160,2.0,-2.0,-4.0,-11.0,4.0,8.0,21.0,1.0,-0.0648193359375,0.5433349609375,0.69024658203125,0.47332763671875,-0.55029296875,0.669921875,0.45068359375
161,-3.0,-3.0,-6.0,5.0,-2.0,9.0,-15.0,-9.0,-0.05157470703125,0.53118896484375,0.7008056640625,0.47320556640625,-0.5322265625,0.71044921875,0.50537109375
162,-4.0,4.0,2.0,4.0,-4.0,-11.0,-24.0,1.0,-0.03375244140625,0.51654052734375,0.71343994140625,0.47210693359375,-0.55029296875,0.66796875,0.43212890625
163,1.0,-2.0,-12.0,-67.0,-17.0,-2.0,24.0,-9.0,-0.01104736328125,0.4976806640625,0.72900390625,0.46966552734375,-0.580078125,0.6015625,0.49169921875
164,1.0,-2.0,-3.0,13.0,8.0,-1.0,-5.0,8.0,0.01666259765625,0.47845458984375,0.74444580078125,0.46533203125,-0.57763671875,0.62890625,0.41943359375
165,1.0,2.0,7.0,-14.0,0.0,1.0,-2.0,-4.0,0.044921875,0.4583740234375,0.7603759765625,0.45782470703125,-0.54345703125,0.6708984375,0.43994140625
166,-2.0,-6.0,-3.0,17.0,5.0,4.0,0.0,-8.0,0.07318115234375,0.43896484375,0.77587890625,0.44708251953125,-0.51123046875,0.72021484375,0.46630859375
167,-2.0,-2.0,-1.0,22.0,7.0,5.0,-12.0,-8.0,0.09698486328125,0.4176025390625,0.7921142578125,0.434326171875,-0.3955078125,0.759765625,0.544921875
168,-1.0,1.0,4.0,-17.0,-5.0,-7.0,-12.0,9.0,0.1182861328125,0.39349365234375,0.80792236328125,0.4222412109375,-0.27587890625,0.7060546875,0.5810546875
169,-1.0,-2.0,-6.0,4.0,-8.0,2.0,-11.0,-17.0,0.1370849609375,0.3709716796875,0.82183837890625,0.409912109375,-0.07275390625,0.67041015625,0.6806640625
170,5.0,3.0,10.0,9.0,22.0,9.0,15.0,8.0,0.1531982421875,0.35479736328125,0.83172607421875,0.39837646484375,0.060546875,0.70263671875,0.779296875
171,-6.0,-5.0,-9.0,-6.0,10.0,-14.0,-20.0,-11.0,0.1666259765625,0.3448486328125,0.8385009765625,0.387451171875,0.0361328125,0.8359375,0.76953125
172,-2.0,-7.0,-8.0,6.0,-32.0,1.0,3.0,9.0,0.1768798828125,0.33795166015625,0.84320068359375,0.378662109375,0.00732421875,0.822265625,0.75732421875
173,-6.0,3.0,7.0,16.0,-2.0,-5.0,2.0,4.0,0.1859130859375,0.3336181640625,0.84637451171875,0.37103271484375,0.0458984375,0.82421875,0.7236328125
174,4.0,0.0,0.0,-27.0,6.0,8.0,6.0,2.0,0.193359375,0.33038330078125,0.84893798828125,0.36419677734375,0.07373046875,0.80419921875,0.70263671875
175,-5.0,-5.0,-11.0,-7.0,-1.0,-6.0,3.0,3.0,0.20001220703125,0.327392578125,0.8511962890625,0.3580322265625,0.1044921875,0.740234375,0.658203125
176,-3.0,2.0,4.0,13.0,2.0,14.0,8.0,0.0,0.206298828125,0.32330322265625,0.853759765625,0.35205078125,0.1494140625,0.68359375,0.63671875
177,4.0,-1.0,-1.0,21.0,-3.0,-32.0,-4.0,5.0,0.21478271484375,0.31927490234375,0.85565185546875,0.34600830078125,0.3193359375,0.6357421875,0.6181640625
178,-4.0,-6.0,-4.0,-19.0,-4.0,0.0,0.0,-1.0,0.22222900390625,0.32037353515625,0.854736328125,0.342529296875,0.34521484375,1.0234375,0.6689453125
179,5.0,3.0,-2.0,-2.0,-4.0,-17.0,-9.0,-3.0,0.222412109375,0.322021484375,0.85369873046875,0.34344482421875,0.271484375,1.00732421875,0.6806640625
180,0.0,-3.0,2.0,-4.0,4.0,-2.0,-1.0,0.0,0.21575927734375,0.32275390625,0.853759765625,0.34686279296875,0.0849609375,0.67041015625,0.7236328125
181,-1.0,-4.0,-6.0,0.0,5.0,14.0,18.0,2.0,0.2120361328125,0.33087158203125,0.85107421875,0.34808349609375,-0.03857421875,0.546875,0.72412109375
182,-4.0,-1.0,-3.0,-8.0,-13.0,-14.0,-43.0,-4.0,0.2147216796875,0.34466552734375,0.84564208984375,0.34625244140625,0.056640625,0.73828125,0.662109375
183,-1.0,1.0,6.0,-17.0,-3.0,-5.0,16.0,5.0,0.2177734375,0.3564453125,0.84075927734375,0.34429931640625,0.13720703125,0.86474609375,0.59228515625
184,3.0,-1.0,-5.0,-28.0,1.0,-2.0,5.0,2.0,0.21734619140625,0.3642578125,0.8380126953125,0.343017578125,0.1328125,0.86669921875,0.64013671875
185,-1.0,-3.0,-1.0,32.0,-3.0,2.0,3.0,-3.0,0.21502685546875,0.3717041015625,0.8355712890625,0.34259033203125,0.078125,0.83251953125,0.70263671875
186,-2.0,1.0,-3.0,-34.0,-6.0,-4.0,2.0,-5.0,0.2113037109375,0.37982177734375,0.8326416015625,0.34295654296875,0.04736328125,0.80908203125,0.80712890625
187,-1.0,3.0,8.0,15.0,0.0,9.0,-1.0,8.0,0.20697021484375,0.39068603515625,0.8282470703125,0.34417724609375,-0.01123046875,0.9267578125,0.8369140625
188,-1.0,0.0,4.0,17.0,-3.0,-7.0,3.0,0.0,0.20220947265625,0.40118408203125,0.82391357421875,0.3453369140625,0.02197265625,0.943359375,0.82177734375
189,-1.0,-1.0,-4.0,-28.0,-1.0,6.0,-5.0,-21.0,0.19586181640625,0.41162109375,0.81976318359375,0.346435546875,0.1171875,0.99853515625,0.77099609375
190,-3.0,-4.0,-7.0,-2.0,5.0,6.0,10.0,-3.0,0.18597412109375,0.42169189453125,0.8157958984375,0.34918212890625,0.17041015625,1.0595703125,0.7177734375
191,-6.0,0.0,1.0,15.0,-9.0,-6.0,-11.0,0.0,0.17022705078125,0.43121337890625,0.8121337890625,0.35406494140625,0.08251953125,1.00732421875,0.73779296875
192,-6.0,-4.0,-10.0,-3.0,8.0,-1.0,-15.0,-2.0,0.15057373046875,0.44512939453125,0.805908203125,0.35992431640625,-0.01123046875,0.9931640625,0.70751953125
193,7.0,0.0,4.0,5.0,-3.0,5.0,-3.0,-1.0,0.1273193359375,0.46197509765625,0.79718017578125,0.3670654296875,-0.126953125,0.970703125,0.68310546875
194,3.0,4.0,6.0,18.0,-1.0,4.0,11.0,-1.0,0.10235595703125,0.48040771484375,0.7861328125,0.37506103515625,-0.25,0.90771484375,0.62890625
195,-1.0,-2.0,-4.0,2.0,3.0,6.0,1.0,-6.0,0.07666015625,0.49884033203125,0.77313232421875,0.384033203125,-0.3447265625,0.92041015625,0.59423828125
196,-8.0,0.0,-1.0,6.0,9.0,-1.0,-11.0,-1.0,0.04998779296875,0.5162353515625,0.75946044921875,0.39263916015625,-0.3583984375,0.92626953125,0.49658203125
197,-2.0,-4.0,-7.0,-12.0,-1.0,5.0,-12.0,-6.0,0.0218505859375,0.5294189453125,0.74737548828125,0.400634765625,-0.40185546875,0.84619140625,0.48583984375
198,-1.0,-1.0,0.0,-2.0,0.0,-15.0,-4.0,2.0,-0.0069580078125,0.5391845703125,0.73663330078125,0.40802001953125,-0.45751953125,0.79248046875,0.5166015625
199,5.0,1.0,-2.0,25.0,-4.0,5.0,-7.0,-4.0,-0.033935546875,0.5465087890625,0.726318359375,0.4154052734375,-0.52001953125,0.7626953125,0.52734375
200,0.0,5.0,3.0,17.0,-1.0,8.0,5.0,-6.0,-0.05712890625,0.55157470703125,0.71697998046875,0.4222412109375,-0.55419921875,0.7255859375,0.48046875
201,-5.0,-6.0,-5.0,73.0,0.0,-7.0,-1.0,8.0,-0.0755615234375,0.5543212890625,0.7093505859375,0.4285888671875,-0.56396484375,0.67919921875,0.45849609375
202,1.0,-2.0,3.0,27.0,6.0,4.0,14.0,-2.0,-0.08905029296875,0.5521240234375,0.70538330078125,0.4354248046875,-0.59130859375,0.7158203125,0.46337890625
203,-5.0,-4.0,-8.0,-80.0,-18.0,-2.0,-2.0,-1.0,-0.09698486328125,0.54364013671875,0.70635986328125,0.44268798828125,-0.6640625,0.77490234375,0.4814453125
204,1.0,-1.0,4.0,22.0,9.0,-5.0,-3.0,-2.0,-0.09857177734375,0.5279541015625,0.71331787109375,0.45013427734375,-0.7509765625,0.734375,0.51220703125
205,-3.0,1.0,-4.0,-40.0,-2.0,3.0,-3.0,-3.0,-0.09014892578125,0.5067138671875,0.72491455078125,0.45770263671875,-0.76123046875,0.7119140625,0.51171875
206,1.0,2.0,6.0,12.0,-2.0,-2.0,19.0,1.0,-0.07281494140625,0.4815673828125,0.73919677734375,0.46502685546875,-0.66064453125,0.708984375,0.45556640625
207,3.0,-1.0,-7.0,23.0,15.0,5.0,-3.0,5.0,-0.0489501953125,0.452392578125,0.75555419921875,0.47113037109375,-0.55615234375,0.69873046875,0.38623046875
208,-3.0,-4.0,-2.0,-11.0,-7.0,-1.0,-4.0,-11.0,-0.02197265625,0.419189453125,0.77349853515625,0.47479248046875,-0.46826171875,0.658203125,0.34716796875
209,-4.0,-2.0,-3.0,-65.0,2.0,-2.0,-4.0,-1.0,0.00537109375,0.38250732421875,0.7916259765625,0.47637939453125,-0.3642578125,0.6171875,0.2998046875
210,-3.0,0.0,-3.0,11.0,0.0,-10.0,-4.0,-5.0,0.0308837890625,0.3421630859375,0.8099365234375,0.4752197265625,-0.3173828125,0.478515625,0.392578125
211,0.0,-3.0,-6.0,-22.0,-15.0,5.0,18.0,4.0,0.0545654296875,0.3026123046875,0.8265380859375,0.47137451171875,-0.240234375,0.33642578125,0.474609375
212,1.0,-2.0,6.0,14.0,1.0,-3.0,2.0,-2.0,0.07720947265625,0.2684326171875,0.8394775390625,0.46600341796875,-0.09619140625,0.24658203125,0.603515625
213,0.0,-1.0,-5.0,41.0,10.0,-4.0,0.0,-3.0,0.09698486328125,0.2447509765625,0.84796142578125,0.45989990234375,0.02490234375,0.2958984375,0.66943359375
214,0.0,-2.0,-7.0,-20.0,-4.0,3.0,8.0,1.0,0.1116943359375,0.2291259765625,0.85394287109375,0.45361328125,0.03173828125,0.38720703125,0.7548828125
215,-6.0,-4.0,6.0,19.0,2.0,-1.0,-3.0,-3.0,0.12005615234375,0.22021484375,0.85870361328125,0.44677734375,0.044921875,0.408203125,0.822265625
216,7.0,5.0,2.0,8.0,-1.0,-1.0,12.0,-7.0,0.1241455078125,0.22003173828125,0.86187744140625,0.4395751953125,0.05712890625,0.396484375,0.818359375
217,2.0,2.0,6.0,15.0,3.0,7.0,6.0,7.0,0.12481689453125,0.22857666015625,0.86309814453125,0.43255615234375,0.060546875,0.4404296875,0.81689453125
218,-3.0,-6.0,-11.0,-47.0,-17.0,-6.0,-12.0,-8.0,0.12188720703125,0.2435302734375,0.86224365234375,0.4268798828125,0.025390625,0.5166015625,0.8017578125
219,-2.0,-4.0,-1.0,26.0,8.0,0.0,-4.0,-5.0,0.115966796875,0.26287841796875,0.85931396484375,0.42303466796875,-0.0498046875,0.57470703125,0.78369140625
220,-5.0,-5.0,1.0,-4.0,-5.0,-6.0,-4.0,-4.0,0.10906982421875,0.28607177734375,0.85443115234375,0.41961669921875,-0.12158203125,0.6494140625,0.68408203125
221,-8.0,-2.0,1.0,-4.0,7.0,-7.0,-9.0,-10.0,0.10052490234375,0.31170654296875,0.8482666015625,0.41607666015625,-0.15478515625,0.7021484375,0.6220703125
222,5.0,5.0,1.0,-15.0,1.0,11.0,1.0,22.0,0.08868408203125,0.33599853515625,0.84161376953125,0.41326904296875,-0.21435546875,0.7158203125,0.6455078125
223,-5.0,-7.0,-7.0,-17.0,-4.0,-14.0,-3.0,0.0,0.07598876953125,0.36004638671875,0.833984375,0.41107177734375,-0.310546875,0.71826171875,0.6806640625
224,-4.0,-6.0,-3.0,21.0,0.0,-3.0,-7.0,-2.0,0.06451416015625,0.383544921875,0.8253173828125,0.4091796875,-0.373046875,0.7451171875,0.80224609375
225,2.0,3.0,2.0,-12.0,-9.0,-10.0,-13.0,-11.0,0.054443359375,0.40545654296875,0.81597900390625,0.4083251953125,-0.4375,0.8583984375,0.7958984375
226,6.0,0.0,-5.0,-4.0,-3.0,3.0,0.0,4.0,0.04449462890625,0.425048828125,0.80682373046875,0.4078369140625,-0.4287109375,0.89453125,0.744140625
227,0.0,4.0,-1.0,3.0,-2.0,5.0,-16.0,-10.0,0.0343017578125,0.44158935546875,0.798828125,0.4068603515625,-0.38720703125,0.87109375,0.69384765625
228,7.0,5.0,4.0,-15.0,3.0,-6.0,13.0,15.0,0.022216796875,0.4559326171875,0.792236328125,0.4049072265625,-0.3935546875,0.826171875,0.63525390625
229,-8.0,-5.0,0.0,24.0,5.0,6.0,4.0,0.0,0.01092529296875,0.47015380859375,0.78521728515625,0.4027099609375,-0.40625,0.73388671875,0.6171875
230,0.0,2.0,1.0,4.0,-18.0,-7.0,-13.0,-7.0,0.001220703125,0.48760986328125,0.77593994140625,0.400146484375,-0.41748046875,0.72314453125,0.53076171875
231,8.0,1.0,2.0,19.0,-1.0,9.0,12.0,15.0,-0.00714111328125,0.50738525390625,0.76470947265625,0.39703369140625,-0.38720703125,0.76904296875,0.4296875
232,-19.0,-8.0,-6.0,-43.0,-8.0,-7.0,-10.0,-28.0,-0.01580810546875,0.5252685546875,0.75360107421875,0.394775390625,-0.4013671875,0.82275390625,0.4658203125
233,5.0,-2.0,4.0,31.0,-1.0,-16.0,10.0,18.0,-0.024658203125,0.54388427734375,0.74102783203125,0.392822265625,-0.46142578125,0.91552734375,0.3818359375
234,-2.0,2.0,7.0,9.0,18.0,0.0,-20.0,-14.0,-0.033935546875,0.558837890625,0.73065185546875,0.390625,-0.46630859375,0.84326171875,0.3310546875
235,3.0,0.0,-4.0,-28.0,-9.0,8.0,12.0,20.0,-0.04193115234375,0.5703125,0.7218017578125,0.3896484375,-0.51220703125,0.73095703125,0.34228515625
236,7.0,0.0,-2.0,7.0,7.0,24.0,21.0,20.0,-0.04473876953125,0.5823974609375,0.71221923828125,0.38922119140625,-0.48046875,0.71044921875,0.33154296875
237,-6.0,-2.0,-5.0,-15.0,-29.0,-26.0,30.0,-6.0,-0.0447998046875,0.5941162109375,0.70208740234375,0.38983154296875,-0.41162109375,0.83447265625,0.38037109375
238,0.0,-5.0,0.0,8.0,12.0,3.0,-8.0,-9.0,-0.04595947265625,0.60272216796875,0.694091796875,0.390869140625,-0.5009765625,0.97412109375,0.38427734375
239,-6.0,-6.0,-4.0,-13.0,-4.0,-17.0,-13.0,-5.0,-0.04876708984375,0.60614013671875,0.69012451171875,0.392333984375,-0.59423828125,0.8798828125,0.4580078125
240,2.0,2.0,4.0,4.0,5.0,-12.0,-23.0,-19.0,-0.05059814453125,0.60791015625,0.68768310546875,0.39361572265625,-0.61376953125,0.89306640625,0.51611328125
241,4.0,0.0,2.0,19.0,-3.0,27.0,31.0,12.0,-0.05194091796875,0.60870361328125,0.68701171875,0.39324951171875,-0.619140625,0.9443359375,0.45703125
242,-7.0,-6.0,-15.0,-88.0,-10.0,-14.0,-45.0,-24.0,-0.05377197265625,0.6082763671875,0.6873779296875,0.39306640625,-0.68701171875,0.88623046875,0.4052734375
243,1.0,3.0,9.0,81.0,-6.0,5.0,-13.0,-6.0,-0.05419921875,0.6077880859375,0.6876220703125,0.39337158203125,-0.681640625,0.87109375,0.32421875
244,6.0,-4.0,7.0,59.0,29.0,3.0,5.0,-4.0,-0.05377197265625,0.606689453125,0.68853759765625,0.39361572265625,-0.626953125,0.85498046875,0.2724609375
245,-6.0,-5.0,-12.0,-35.0,-4.0,14.0,-43.0,-4.0,-0.05352783203125,0.6058349609375,0.68951416015625,0.3931884765625,-0.5673828125,0.8466796875,0.23779296875
246,-2.0,3.0,4.0,-14.0,4.0,-19.0,18.0,8.0,-0.054443359375,0.605712890625,0.689697265625,0.39288330078125,-0.55615234375,0.81689453125,0.22314453125
247,-5.0,-6.0,-5.0,6.0,-5.0,-10.0,13.0,-2.0,-0.056640625,0.60675048828125,0.6885986328125,0.39288330078125,-0.5458984375,0.78662109375,0.21435546875
248,-5.0,6.0,5.0,-10.0,-7.0,7.0,-16.0,-3.0,-0.06005859375,0.609130859375,0.6859130859375,0.3934326171875,-0.541015625,0.78515625,0.18212890625
249,6.0,0.0,3.0,32.0,8.0,5.0,-1.0,13.0,-0.06463623046875,0.61212158203125,0.6820068359375,0.394775390625,-0.56689453125,0.7763671875,0.17626953125
250,-7.0,-1.0,-8.0,-7.0,-6.0,-4.0,26.0,3.0,-0.070068359375,0.61578369140625,0.677001953125,0.39678955078125,-0.568359375,0.751953125,0.173828125
251,-1.0,1.0,1.0,-27.0,11.0,8.0,-10.0,-10.0,-0.07611083984375,0.6202392578125,0.67083740234375,0.39923095703125,-0.578125,0.76123046875,0.173828125
252,-2.0,-2.0,-2.0,33.0,-6.0,-7.0,16.0,3.0,-0.08367919921875,0.624267578125,0.6644287109375,0.40216064453125,-0.6552734375,0.7607421875,0.1982421875
253,-7.0,-3.0,-5.0,-24.0,-8.0,2.0,-5.0,-5.0,-0.09161376953125,0.62725830078125,0.6580810546875,0.40618896484375,-0.7275390625,0.7783203125,0.2490234375
254,5.0,-3.0,2.0,-15.0,-2.0,0.0,2.0,-12.0,-0.09918212890625,0.62896728515625,0.65216064453125,0.41131591796875,-0.78759765625,0.82373046875,0.283203125
255,-2.0,1.0,6.0,21.0,6.0,-2.0,-4.0,-9.0,-0.10693359375,0.62860107421875,0.6473388671875,0.41748046875,-0.837890625,0.8544921875,0.31787109375
256,-5.0,-4.0,-8.0,-47.0,-16.0,3.0,-9.0,0.0,-0.114990234375,0.626953125,0.64312744140625,0.42425537109375,-0.89208984375,0.86181640625,0.31982421875
257,2.0,2.0,-1.0,-20.0,4.0,-7.0,-6.0,-4.0,-0.12347412109375,0.62420654296875,0.63922119140625,0.4317626953125,-0.9296875,0.8447265625,0.3115234375
258,-4.0,-3.0,-6.0,7.0,-1.0,4.0,-10.0,-7.0,-0.1322021484375,0.62115478515625,0.6351318359375,0.43951416015625,-0.9267578125,0.8359375,0.2705078125
259,4.0,0.0,12.0,73.0,9.0,-1.0,48.0,3.0,-0.1414794921875,0.61761474609375,0.63104248046875,0.44744873046875,-0.89453125,0.80712890625,0.23828125
260,-7.0,-5.0,-7.0,-63.0,-7.0,3.0,-17.0,7.0,-0.1510009765625,0.61376953125,0.62677001953125,0.45556640625,-0.85498046875,0.7626953125,0.2060546875
261,2.0,-5.0,-10.0,48.0,8.0,-5.0,-4.0,-3.0,-0.1602783203125,0.60980224609375,0.62249755859375,0.46356201171875,-0.79736328125,0.74658203125,0.19189453125
262,-1.0,-1.0,0.0,-1.0,0.0,7.0,12.0,3.0,-0.17034912109375,0.60516357421875,0.6181640625,0.47174072265625,-0.7783203125,0.7080078125,0.1748046875
263,0.0,2.0,5.0,8.0,-8.0,-8.0,-17.0,-2.0,-0.1806640625,0.5997314453125,0.6142578125,0.4798583984375,-0.72998046875,0.63427734375,0.166015625
264,-6.0,-2.0,-2.0,-6.0,5.0,-1.0,52.0,0.0,-0.19073486328125,0.59405517578125,0.61041259765625,0.4879150390625,-0.6943359375,0.5595703125,0.16015625
265,8.0,0.0,4.0,-10.0,-6.0,7.0,-39.0,6.0,-0.20025634765625,0.58807373046875,0.6065673828125,0.49603271484375,-0.6806640625,0.513671875,0.16162109375
266,-8.0,-5.0,-5.0,-6.0,-3.0,-6.0,-10.0,2.0,-0.208740234375,0.58197021484375,0.60296630859375,0.5040283203125,-0.646484375,0.45849609375,0.1689453125
267,0.0,0.0,-4.0,-38.0,9.0,7.0,-9.0,2.0,-0.2161865234375,0.576416015625,0.599609375,0.51123046875,-0.62646484375,0.4326171875,0.15625
268,-2.0,-1.0,-3.0,3.0,-13.0,-5.0,-3.0,-9.0,-0.22247314453125,0.57086181640625,0.5972900390625,0.51751708984375,-0.609375,0.3896484375,0.17822265625
269,2.0,2.0,-2.0,-12.0,2.0,-4.0,0.0,8.0,-0.2276611328125,0.5654296875,0.5960693359375,0.52252197265625,-0.60400390625,0.365234375,0.201171875
270,-3.0,-2.0,7.0,42.0,-7.0,-12.0,2.0,-22.0,-0.2315673828125,0.56072998046875,0.59588623046875,0.52606201171875,-0.6201171875,0.34716796875,0.2099609375
271,4.0,-3.0,-4.0,-27.0,-3.0,11.0,-17.0,8.0,-0.23394775390625,0.55670166015625,0.5970458984375,0.52801513671875,-0.65283203125,0.34716796875,0.22607421875
272,-6.0,-1.0,-14.0,3.0,-5.0,0.0,10.0,-6.0,-0.235107421875,0.552978515625,0.59906005859375,0.52911376953125,-0.6826171875,0.3251953125,0.2626953125
273,8.0,10.0,46.0,-15.0,-3.0,6.0,3.0,-2.0,-0.23516845703125,0.55029296875,0.6014404296875,0.52923583984375,-0.73681640625,0.34716796875,0.25537109375
274,-6.0,-8.0,-35.0,5.0,6.0,-17.0,-45.0,7.0,-0.23406982421875,0.5487060546875,0.60400390625,0.52838134765625,-0.76806640625,0.3544921875,0.2646484375
275,-3.0,-5.0,9.0,4.0,2.0,-6.0,21.0,-6.0,-0.232421875,0.54833984375,0.6060791015625,0.52716064453125,-0.7900390625,0.36181640625,0.26611328125
276,-4.0,-3.0,-13.0,-54.0,-8.0,-7.0,-19.0,1.0,-0.230712890625,0.548828125,0.60748291015625,0.5257568359375,-0.8359375,0.39111328125,0.2705078125
277,-5.0,0.0,-2.0,-60.0,-8.0,-7.0,2.0,-10.0,-0.2291259765625,0.55023193359375,0.60833740234375,0.5240478515625,-0.8681640625,0.419921875,0.2734375
278,5.0,4.0,9.0,94.0,11.0,10.0,-34.0,21.0,-0.2283935546875,0.5517578125,0.60888671875,0.52203369140625,-0.89111328125,0.4384765625,0.28125
279,-1.0,0.0,8.0,4.0,-5.0,-9.0,15.0,-8.0,-0.228759765625,0.55316162109375,0.6090087890625,0.52032470703125,-0.93115234375,0.4423828125,0.291015625
280,19.0,3.0,12.0,-5.0,-3.0,29.0,23.0,46.0,-0.229248046875,0.5546875,0.60833740234375,0.51922607421875,-0.9541015625,0.44384765625,0.2958984375
281,-15.0,-7.0,-14.0,36.0,2.0,-18.0,10.0,-20.0,-0.22998046875,0.55615234375,0.60723876953125,0.5186767578125,-0.95458984375,0.4609375,0.28662109375
282,1.0,1.0,8.0,-24.0,-10.0,3.0,20.0,6.0,-0.23101806640625,0.556884765625,0.60626220703125,0.5185546875,-0.95751953125,0.466796875,0.29150390625
283,-3.0,-7.0,-29.0,-68.0,-11.0,-1.0,6.0,-3.0,-0.23248291015625,0.55706787109375,0.60540771484375,0.5186767578125,-0.951171875,0.46044921875,0.27734375
284,0.0,5.0,16.0,44.0,1.0,-17.0,-28.0,-4.0,-0.23388671875,0.55657958984375,0.60498046875,0.51904296875,-0.92333984375,0.44873046875,0.27685546875
285,0.0,-2.0,-8.0,-19.0,-5.0,-1.0,26.0,14.0,-0.2349853515625,0.5557861328125,0.60467529296875,0.51971435546875,-0.90380859375,0.42724609375,0.27978515625
286,-3.0,-5.0,6.0,21.0,-2.0,2.0,9.0,-14.0,-0.23565673828125,0.5550537109375,0.6043701171875,0.52056884765625,-0.89501953125,0.4228515625,0.27783203125
287,-2.0,-4.0,-5.0,38.0,11.0,6.0,-15.0,8.0,-0.23565673828125,0.55426025390625,0.60443115234375,0.5213623046875,-0.87060546875,0.43115234375,0.28076171875
288,3.0,4.0,8.0,-1.0,-5.0,2.0,17.0,-7.0,-0.23529052734375,0.55364990234375,0.604736328125,0.52178955078125,-0.8427734375,0.42431640625,0.27294921875
289,-9.0,-10.0,-23.0,8.0,2.0,-23.0,-16.0,-1.0,-0.23504638671875,0.552978515625,0.60540771484375,0.5218505859375,-0.841796875,0.4189453125,0.28857421875
290,2.0,-1.0,7.0,-3.0,-4.0,22.0,-9.0,-3.0,-0.2347412109375,0.55230712890625,0.606201171875,0.5218505859375,-0.84033203125,0.41162109375,0.2861328125
291,1.0,6.0,5.0,-11.0,2.0,1.0,3.0,-9.0,-0.23406982421875,0.55206298828125,0.6068115234375,0.52166748046875,-0.83251953125,0.41357421875,0.2822265625
292,-2.0,-11.0,-11.0,-8.0,-5.0,-14.0,-27.0,-8.0,-0.2333984375,0.5518798828125,0.60748291015625,0.52130126953125,-0.841796875,0.4287109375,0.29052734375
293,0.0,0.0,3.0,25.0,6.0,7.0,13.0,5.0,-0.232666015625,0.55194091796875,0.60809326171875,0.5208740234375,-0.853515625,0.44384765625,0.28759765625
294,-3.0,-1.0,-7.0,-26.0,10.0,20.0,31.0,6.0,-0.232177734375,0.552001953125,0.60882568359375,0.52020263671875,-0.8515625,0.44580078125,0.2861328125
295,-1.0,-2.0,4.0,62.0,2.0,-19.0,-15.0,-11.0,-0.23211669921875,0.5521240234375,0.609375,0.51947021484375,-0.8642578125,0.4404296875,0.27880859375
296,1.0,-4.0,-15.0,-24.0,-2.0,0.0,-24.0,1.0,-0.23193359375,0.5523681640625,0.60968017578125,0.5189208984375,-0.88232421875,0.4453125,0.28369140625
297,3.0,6.0,10.0,-9.0,-22.0,9.0,-34.0,7.0,-0.23175048828125,0.5526123046875,0.60986328125,0.5185546875,-0.8828125,0.44873046875,0.28125
298,2.0,-5.0,-1.0,29.0,10.0,9.0,38.0,-10.0,-0.23199462890625,0.55279541015625,0.610107421875,0.51800537109375,-0.88134765625,0.44921875,0.2802734375
299,-7.0,0.0,2.0,-49.0,-2.0,2.0,-17.0,-4.0,-0.23248291015625,0.5528564453125,0.61016845703125,0.51763916015625,-0.89501953125,0.44970703125,0.275390625
300,1.0,-2.0,-9.0,21.0,5.0,-4.0,-4.0,-7.0,-0.23321533203125,0.5528564453125,0.61016845703125,0.51727294921875,-0.89208984375,0.4404296875,0.267578125
301,2.0,-1.0,-5.0,5.0,1.0,-3.0,15.0,-15.0,-0.23406982421875,0.5528564453125,0.61004638671875,0.51708984375,-0.892578125,0.431640625,0.27099609375
302,1.0,-1.0,-7.0,-44.0,-19.0,-8.0,4.0,12.0,-0.234619140625,0.552978515625,0.60968017578125,0.51708984375,-0.8837890625,0.4296875,0.26953125
303,-5.0,-2.0,5.0,19.0,9.0,2.0,-6.0,-4.0,-0.2349853515625,0.55322265625,0.60931396484375,0.51708984375,-0.884765625,0.4443359375,0.26904296875
304,-3.0,-4.0,0.0,0.0,-3.0,-5.0,1.0,-3.0,-0.23541259765625,0.55322265625,0.60919189453125,0.51702880859375,-0.875,0.43115234375,0.2763671875
305,-7.0,-7.0,-11.0,-15.0,4.0,7.0,-2.0,-3.0,-0.23590087890625,0.55316162109375,0.6090087890625,0.51708984375,-0.8779296875,0.4267578125,0.27490234375
306,-1.0,4.0,13.0,59.0,-2.0,-7.0,-17.0,-1.0,-0.23590087890625,0.55316162109375,0.6090087890625,0.51708984375,-0.87744140625,0.427734375,0.283203125
307,-1.0,-1.0,-8.0,-38.0,8.0,11.0,14.0,8.0,-0.23590087890625,0.55316162109375,0.6090087890625,0.51708984375,-0.87646484375,0.42919921875,0.29052734375
308,-2.0,4.0,10.0,19.0,-3.0,5.0,3.0,-11.0,-0.2357177734375,0.55303955078125,0.609130859375,0.5172119140625,-0.8701171875,0.43798828125,0.28271484375
309,3.0,1.0,-3.0,-33.0,3.0,4.0,1.0,3.0,-0.2353515625,0.552734375,0.60943603515625,0.51727294921875,-0.8642578125,0.435546875,0.296875
310,-4.0,-7.0,-5.0,27.0,-9.0,-15.0,-25.0,-6.0,-0.235107421875,0.55242919921875,0.60980224609375,0.51727294921875,-0.86767578125,0.44384765625,0.29931640625
311,2.0,4.0,4.0,1.0,-6.0,-4.0,-9.0,2.0,-0.2349853515625,0.5521240234375,0.61016845703125,0.5172119140625,-0.8662109375,0.43115234375,0.29150390625
312,2.0,2.0,-4.0,11.0,3.0,0.0,2.0,3.0,-0.23486328125,0.55194091796875,0.6104736328125,0.51715087890625,-0.8583984375,0.4306640625,0.28759765625
313,-3.0,-3.0,0.0,-7.0,8.0,-7.0,-14.0,-9.0,-0.23486328125,0.55194091796875,0.6104736328125,0.51708984375,-0.8623046875,0.439453125,0.28076171875
314,1.0,0.0,3.0,-15.0,-10.0,-6.0,26.0,-1.0,-0.23486328125,0.55194091796875,0.6104736328125,0.51708984375,-0.86474609375,0.4365234375,0.27783203125
315,2.0,-5.0,-6.0,-6.0,5.0,-2.0,-6.0,7.0,-0.23480224609375,0.55224609375,0.61041259765625,0.51690673828125,-0.86376953125,0.443359375,0.2822265625
316,-4.0,0.0,2.0,-26.0,-13.0,-4.0,-6.0,0.0,-0.23516845703125,0.5523681640625,0.6103515625,0.5167236328125,-0.86962890625,0.4345703125,0.28125
317,2.0,0.0,-2.0,23.0,5.0,-5.0,-16.0,-2.0,-0.23565673828125,0.55242919921875,0.61016845703125,0.5166015625,-0.8759765625,0.427734375,0.28125
318,-1.0,0.0,0.0,-25.0,4.0,12.0,24.0,0.0,-0.23590087890625,0.55267333984375,0.6099853515625,0.5164794921875,-0.8779296875,0.4365234375,0.27392578125
319,-4.0,-5.0,-6.0,-18.0,-8.0,-3.0,2.0,-9.0,-0.23590087890625,0.55267333984375,0.60992431640625,0.5164794921875,-0.87158203125,0.43505859375,0.279296875
320,0.0,0.0,-5.0,-14.0,-8.0,-7.0,3.0,2.0,-0.23590087890625,0.55267333984375,0.60992431640625,0.51654052734375,-0.880859375,0.43359375,0.2890625
321,-3.0,-2.0,3.0,29.0,5.0,-1.0,3.0,-2.0,-0.23590087890625,0.55267333984375,0.60992431640625,0.51654052734375,-0.87353515625,0.4404296875,0.27978515625
322,0.0,5.0,3.0,-19.0,-8.0,-4.0,-12.0,5.0,-0.23590087890625,0.55267333984375,0.6102294921875,0.51617431640625,-0.875,0.4384765625,0.28369140625
323,-1.0,-5.0,-11.0,-25.0,-6.0,-6.0,-4.0,-4.0,-0.2359619140625,0.55279541015625,0.61029052734375,0.515869140625,-0.8837890625,0.4296875,0.27880859375
324,0.0,-2.0,-1.0,10.0,10.0,6.0,1.0,5.0,-0.23583984375,0.5531005859375,0.61029052734375,0.51568603515625,-0.88427734375,0.43603515625,0.27392578125
325,-10.0,-8.0,-6.0,-45.0,-9.0,8.0,-2.0,-8.0,-0.2354736328125,0.553466796875,0.61016845703125,0.51556396484375,-0.87744140625,0.4462890625,0.2724609375
326,-3.0,-1.0,-3.0,7.0,3.0,-17.0,2.0,-5.0,-0.2353515625,0.55377197265625,0.610107421875,0.515380859375,-0.875,0.4462890625,0.2685546875
327,4.0,5.0,4.0,-26.0,-5.0,3.0,1.0,9.0,-0.2353515625,0.55377197265625,0.610107421875,0.515380859375,-0.87158203125,0.4423828125,0.28125
328,-3.0,-3.0,0.0,19.0,-9.0,-2.0,-28.0,-7.0,-0.2354736328125,0.55364990234375,0.61016845703125,0.51531982421875,-0.8603515625,0.44189453125,0.27734375
329,3.0,2.0,1.0,0.0,5.0,2.0,7.0,0.0,-0.236083984375,0.5535888671875,0.61004638671875,0.51531982421875,-0.85498046875,0.447265625,0.287109375
330,-5.0,-3.0,1.0,20.0,-1.0,-2.0,-30.0,-14.0,-0.23712158203125,0.55377197265625,0.60992431640625,0.5147705078125,-0.86962890625,0.470703125,0.2763671875
331,2.0,-2.0,-2.0,11.0,3.0,-1.0,-9.0,9.0,-0.23870849609375,0.55328369140625,0.610107421875,0.514404296875,-0.89111328125,0.44091796875,0.2685546875
332,-3.0,-1.0,-3.0,-63.0,5.0,9.0,-6.0,-21.0,-0.2403564453125,0.552490234375,0.61077880859375,0.513671875,-0.876953125,0.4208984375,0.291015625
333,1.0,3.0,13.0,56.0,-1.0,-15.0,2.0,-2.0,-0.241455078125,0.5516357421875,0.61163330078125,0.5130615234375,-0.86376953125,0.4189453125,0.30419921875
334,4.0,-3.0,-4.0,-10.0,16.0,1.0,-3.0,12.0,-0.24114990234375,0.5513916015625,0.61175537109375,0.5133056640625,-0.8740234375,0.4306640625,0.283203125
335,-9.0,-1.0,-6.0,-7.0,-11.0,8.0,6.0,-4.0,-0.240966796875,0.551513671875,0.61126708984375,0.5137939453125,-0.8603515625,0.4423828125,0.26904296875
336,-1.0,-2.0,2.0,29.0,18.0,1.0,-2.0,4.0,-0.24127197265625,0.55126953125,0.61114501953125,0.51409912109375,-0.86865234375,0.43603515625,0.28955078125
337,2.0,0.0,0.0,-18.0,-4.0,8.0,6.0,0.0,-0.24139404296875,0.55126953125,0.6112060546875,0.51397705078125,-0.86767578125,0.45068359375,0.291015625
338,0.0,-1.0,-1.0,0.0,-7.0,-8.0,9.0,3.0,-0.24188232421875,0.55108642578125,0.6114501953125,0.51361083984375,-0.875,0.4248046875,0.2783203125
339,-11.0,-6.0,-6.0,1.0,0.0,-9.0,-7.0,-3.0,-0.24224853515625,0.5509033203125,0.6114501953125,0.513671875,-0.87451171875,0.40869140625,0.29052734375
340,1.0,-3.0,-1.0,-20.0,6.0,2.0,16.0,-4.0,-0.241943359375,0.55145263671875,0.61083984375,0.51397705078125,-0.869140625,0.43359375,0.28173828125
341,1.0,1.0,-2.0,-2.0,2.0,-4.0,3.0,2.0,-0.24188232421875,0.5518798828125,0.6103515625,0.51409912109375,-0.875,0.44482421875,0.2744140625
342,0.0,2.0,3.0,12.0,1.0,2.0,3.0,7.0,-0.242431640625,0.5517578125,0.6103515625,0.51397705078125,-0.87109375,0.4375,0.2822265625
343,-1.0,-3.0,-3.0,-15.0,-11.0,-2.0,0.0,1.0,-0.2432861328125,0.551513671875,0.61029052734375,0.513916015625,-0.87744140625,0.4208984375,0.28173828125
344,-4.0,-2.0,1.0,20.0,-5.0,-7.0,12.0,-8.0,-0.24383544921875,0.55120849609375,0.6102294921875,0.51397705078125,-0.892578125,0.41796875,0.2900390625
345,0.0,1.0,-2.0,3.0,0.0,3.0,20.0,-1.0,-0.24383544921875,0.55120849609375,0.610107421875,0.51422119140625,-0.876953125,0.42724609375,0.2822265625
346,1.0,-4.0,-6.0,-18.0,5.0,-10.0,-18.0,6.0,-0.24395751953125,0.55133056640625,0.6097412109375,0.514404296875,-0.87939453125,0.42333984375,0.26953125
347,2.0,3.0,7.0,-3.0,8.0,1.0,3.0,-18.0,-0.244140625,0.5513916015625,0.6094970703125,0.51458740234375,-0.8857421875,0.41552734375,0.267578125
348,-3.0,-4.0,-13.0,19.0,-21.0,-6.0,9.0,-2.0,-0.2442626953125,0.55126953125,0.60943603515625,0.5147705078125,-0.88134765625,0.42431640625,0.26806640625
349,-3.0,-4.0,-3.0,-16.0,-4.0,-23.0,-3.0,9.0,-0.24395751953125,0.55126953125,0.60931396484375,0.5150146484375,-0.88232421875,0.4326171875,0.2685546875
350,4.0,-2.0,-1.0,27.0,11.0,-2.0,-1.0,0.0,-0.24365234375,0.5513916015625,0.60906982421875,0.5152587890625,-0.88525390625,0.41064453125,0.2724609375
351,-6.0,1.0,3.0,6.0,-9.0,3.0,15.0,5.0,-0.24346923828125,0.5517578125,0.60870361328125,0.51544189453125,-0.8779296875,0.40478515625,0.26806640625
352,-3.0,0.0,-1.0,-25.0,2.0,0.0,0.0,0.0,-0.2430419921875,0.55194091796875,0.60833740234375,0.515869140625,-0.86474609375,0.4111328125,0.275390625
353,1.0,2.0,4.0,16.0,-18.0,-2.0,-20.0,-14.0,-0.24176025390625,0.55230712890625,0.607666015625,0.51690673828125,-0.86083984375,0.43603515625,0.2626953125
354,1.0,-4.0,-12.0,-15.0,6.0,4.0,5.0,-6.0,-0.240966796875,0.55267333984375,0.6075439453125,0.5169677734375,-0.85888671875,0.4580078125,0.27294921875
355,3.0,2.0,9.0,35.0,-2.0,-15.0,-16.0,3.0,-0.24127197265625,0.55224609375,0.608154296875,0.5166015625,-0.8623046875,0.435546875,0.28662109375
356,-3.0,0.0,-1.0,-20.0,9.0,4.0,-4.0,-3.0,-0.24176025390625,0.5518798828125,0.6083984375,0.5164794921875,-0.884765625,0.40625,0.29150390625
357,1.0,0.0,-3.0,-13.0,6.0,4.0,-1.0,6.0,-0.2413330078125,0.5521240234375,0.60821533203125,0.5166015625,-0.8701171875,0.4326171875,0.2890625
358,-6.0,0.0,-5.0,-36.0,-11.0,1.0,11.0,-18.0,-0.24102783203125,0.552490234375,0.6080322265625,0.5166015625,-0.86328125,0.44677734375,0.27978515625
359,9.0,0.0,-9.0,12.0,1.0,16.0,3.0,12.0,-0.24127197265625,0.55242919921875,0.60821533203125,0.516357421875,-0.884765625,0.4404296875,0.291015625
360,-2.0,-3.0,2.0,13.0,-4.0,-20.0,-16.0,1.0,-0.24151611328125,0.55255126953125,0.60821533203125,0.51611328125,-0.8857421875,0.43212890625,0.2841796875
361,-2.0,-7.0,-9.0,-29.0,-6.0,0.0,3.0,-2.0,-0.241943359375,0.55267333984375,0.6080322265625,0.5159912109375,-0.89697265625,0.42724609375,0.27734375
362,-2.0,0.0,0.0,-20.0,-8.0,-2.0,7.0,-3.0,-0.24188232421875,0.5528564453125,0.60784912109375,0.5159912109375,-0.890625,0.44189453125,0.28857421875
363,-2.0,-1.0,4.0,28.0,-3.0,-2.0,-10.0,-5.0,-0.2420654296875,0.55316162109375,0.607666015625,0.5157470703125,-0.88623046875,0.44287109375,0.27685546875
364,2.0,0.0,1.0,9.0,4.0,4.0,-5.0,-4.0,-0.24249267578125,0.5531005859375,0.607666015625,0.515625,-0.89599609375,0.42724609375,0.27734375
365,-6.0,-2.0,0.0,-19.0,-1.0,-4.0,-11.0,0.0,-0.24267578125,0.5531005859375,0.6075439453125,0.5157470703125,-0.88427734375,0.42431640625,0.271484375
366,-1.0,3.0,4.0,-5.0,-9.0,-4.0,3.0,9.0,-0.242919921875,0.552978515625,0.60748291015625,0.515869140625,-0.89013671875,0.42333984375,0.28466796875
367,-4.0,-2.0,-2.0,-3.0,0.0,-10.0,3.0,-1.0,-0.24298095703125,0.55303955078125,0.60723876953125,0.51605224609375,-0.88623046875,0.4345703125,0.26806640625
368,3.0,-1.0,-2.0,-12.0,-3.0,0.0,-4.0,6.0,-0.2430419921875,0.55279541015625,0.6072998046875,0.5162353515625,-0.88525390625,0.42919921875,0.27099609375
369,1.0,-1.0,-2.0,34.0,-2.0,6.0,3.0,-3.0,-0.2431640625,0.5523681640625,0.6075439453125,0.51629638671875,-0.88427734375,0.4228515625,0.2724609375
370,-6.0,-1.0,0.0,2.0,0.0,7.0,-4.0,-10.0,-0.2432861328125,0.55194091796875,0.6077880859375,0.51641845703125,-0.876953125,0.419921875,0.2734375
371,1.0,-1.0,-6.0,-26.0,-1.0,-11.0,-9.0,-24.0,-0.2432861328125,0.5516357421875,0.60784912109375,0.5167236328125,-0.87353515625,0.41552734375,0.2724609375
372,3.0,-6.0,-3.0,4.0,14.0,-6.0,28.0,8.0,-0.24322509765625,0.55145263671875,0.60772705078125,0.51702880859375,-0.869140625,0.421875,0.2734375
373,0.0,3.0,0.0,-4.0,-31.0,-2.0,-6.0,6.0,-0.24334716796875,0.551025390625,0.60784912109375,0.517333984375,-0.86962890625,0.42333984375,0.28125
374,0.0,-1.0,3.0,22.0,5.0,6.0,13.0,4.0,-0.24371337890625,0.55035400390625,0.60809326171875,0.51751708984375,-0.87451171875,0.4267578125,0.2724609375
375,0.0,-3.0,-4.0,24.0,3.0,2.0,-10.0,-4.0,-0.24371337890625,0.54986572265625,0.60833740234375,0.51776123046875,-0.87744140625,0.41845703125,0.28466796875
376,-7.0,-1.0,1.0,23.0,-4.0,-4.0,-4.0,-1.0,-0.2435302734375,0.5499267578125,0.60821533203125,0.5179443359375,-0.8623046875,0.43017578125,0.27685546875
377,-1.0,-3.0,-4.0,-51.0,11.0,-3.0,-6.0,-1.0,-0.24359130859375,0.55010986328125,0.60784912109375,0.5181884765625,-0.87646484375,0.42236328125,0.2802734375
378,-1.0,0.0,2.0,25.0,-2.0,15.0,7.0,3.0,-0.24365234375,0.55029296875,0.60760498046875,0.5181884765625,-0.884765625,0.4267578125,0.27294921875
379,-2.0,-1.0,-7.0,-13.0,-9.0,-19.0,-1.0,4.0,-0.24383544921875,0.55010986328125,0.6077880859375,0.51812744140625,-0.88427734375,0.41845703125,0.28759765625
380,0.0,-3.0,3.0,36.0,3.0,1.0,-33.0,0.0,-0.2437744140625,0.550048828125,0.60791015625,0.51806640625,-0.88037109375,0.41064453125,0.2822265625
381,-2.0,-1.0,0.0,-12.0,2.0,-2.0,6.0,-17.0,-0.2435302734375,0.55023193359375,0.60791015625,0.5179443359375,-0.87158203125,0.42578125,0.279296875
382,1.0,2.0,1.0,-22.0,-3.0,5.0,-9.0,4.0,-0.2432861328125,0.55059814453125,0.6077880859375,0.517822265625,-0.8720703125,0.435546875,0.27294921875
383,2.0,-1.0,3.0,19.0,4.0,7.0,-7.0,-1.0,-0.24322509765625,0.55059814453125,0.6077880859375,0.517822265625,-0.87548828125,0.4296875,0.279296875
384,-4.0,-1.0,-6.0,-45.0,-6.0,-2.0,3.0,-4.0,-0.2432861328125,0.55059814453125,0.6077880859375,0.517822265625,-0.88134765625,0.421875,0.28173828125
385,-1.0,-3.0,-4.0,45.0,4.0,-3.0,-7.0,2.0,-0.2432861328125,0.55059814453125,0.6077880859375,0.517822265625,-0.8935546875,0.42333984375,0.28125
386,-4.0,-4.0,-4.0,-33.0,-9.0,-6.0,-17.0,-12.0,-0.2432861328125,0.55059814453125,0.6077880859375,0.517822265625,-0.880859375,0.42626953125,0.28759765625
387,4.0,-3.0,2.0,-2.0,-1.0,-3.0,5.0,9.0,-0.24334716796875,0.5506591796875,0.60772705078125,0.517822265625,-0.87890625,0.435546875,0.27001953125
388,2.0,3.0,-3.0,7.0,-2.0,9.0,14.0,4.0,-0.24346923828125,0.55047607421875,0.60784912109375,0.51776123046875,-0.888671875,0.421875,0.28564453125
389,2.0,1.0,3.0,47.0,10.0,3.0,1.0,1.0,-0.24346923828125,0.55047607421875,0.60784912109375,0.51776123046875,-0.87548828125,0.42822265625,0.27880859375
390,0.0,-1.0,-5.0,-47.0,0.0,-5.0,-12.0,-2.0,-0.24346923828125,0.550537109375,0.60784912109375,0.51776123046875,-0.87890625,0.427734375,0.27294921875
391,-5.0,-7.0,-2.0,-22.0,-17.0,-11.0,-7.0,-21.0,-0.243408203125,0.55047607421875,0.608154296875,0.51751708984375,-0.857421875,0.43798828125,0.2861328125
392,-5.0,-7.0,1.0,76.0,1.0,-7.0,2.0,2.0,-0.24359130859375,0.5501708984375,0.6085205078125,0.51727294921875,-0.8642578125,0.423828125,0.283203125
393,-8.0,1.0,-1.0,16.0,3.0,-6.0,-1.0,-5.0,-0.24359130859375,0.5501708984375,0.6085205078125,0.517333984375,-0.859375,0.4091796875,0.29345703125
394,1.0,2.0,0.0,-8.0,-10.0,-4.0,1.0,-2.0,-0.24371337890625,0.5498046875,0.608642578125,0.51751708984375,-0.85791015625,0.41064453125,0.29296875
395,-6.0,-3.0,-10.0,-27.0,12.0,5.0,-11.0,-5.0,-0.24395751953125,0.549560546875,0.608642578125,0.51763916015625,-0.85302734375,0.41064453125,0.28173828125
396,0.0,-2.0,3.0,-25.0,-10.0,-2.0,-17.0,-29.0,-0.2445068359375,0.5494384765625,0.60845947265625,0.5177001953125,-0.8603515625,0.400390625,0.2783203125
397,1.0,-2.0,0.0,-22.0,-5.0,16.0,24.0,18.0,-0.24530029296875,0.54962158203125,0.60797119140625,0.5177001953125,-0.8720703125,0.3916015625,0.265625
398,-8.0,-5.0,-4.0,4.0,2.0,-10.0,8.0,0.0,-0.2459716796875,0.55010986328125,0.607177734375,0.517822265625,-0.88232421875,0.390625,0.2734375
399,-8.0,-4.0,5.0,38.0,2.0,-13.0,-5.0,-31.0,-0.2467041015625,0.5506591796875,0.60638427734375,0.51776123046875,-0.88818359375,0.39697265625,0.26708984375
400,7.0,5.0,2.0,-17.0,-5.0,-2.0,22.0,6.0,-0.24737548828125,0.55133056640625,0.60565185546875,0.51763916015625,-0.89404296875,0.3896484375,0.2685546875
401,1.0,-2.0,0.0,25.0,18.0,13.0,16.0,21.0,-0.24761962890625,0.55206298828125,0.60498046875,0.51751708984375,-0.8916015625,0.39501953125,0.26611328125
402,-2.0,0.0,-3.0,-49.0,-14.0,-9.0,5.0,-2.0,-0.24761962890625,0.5528564453125,0.6043701171875,0.517333984375,-0.89404296875,0.40673828125,0.26025390625
403,-1.0,-3.0,-5.0,2.0,-7.0,7.0,26.0,15.0,-0.247314453125,0.55364990234375,0.60406494140625,0.51708984375,-0.892578125,0.4169921875,0.25048828125
404,1.0,3.0,2.0,-28.0,-10.0,10.0,-14.0,-5.0,-0.2467041015625,0.554443359375,0.6038818359375,0.51666259765625,-0.8935546875,0.4296875,0.2509765625
405,-6.0,-2.0,-9.0,-16.0,0.0,-18.0,-14.0,-20.0,-0.24603271484375,0.5552978515625,0.60394287109375,0.5159912109375,-0.90478515625,0.43603515625,0.24560546875
406,0.0,-1.0,3.0,20.0,8.0,8.0,16.0,-8.0,-0.24517822265625,0.55615234375,0.60418701171875,0.51519775390625,-0.91162109375,0.44580078125,0.2392578125
407,7.0,3.0,-1.0,-36.0,2.0,-9.0,-32.0,17.0,-0.2442626953125,0.55682373046875,0.60467529296875,0.514404296875,-0.90625,0.451171875,0.24609375
408,-8.0,-5.0,4.0,35.0,-10.0,-14.0,-11.0,-9.0,-0.2430419921875,0.55731201171875,0.6053466796875,0.51361083984375,-0.8974609375,0.4599609375,0.2646484375
409,1.0,0.0,-1.0,-27.0,1.0,8.0,7.0,3.0,-0.24200439453125,0.55743408203125,0.606201171875,0.51300048828125,-0.89013671875,0.4638671875,0.267578125
410,-1.0,1.0,13.0,1.0,3.0,3.0,-5.0,2.0,-0.240966796875,0.55731201171875,0.60693359375,0.5126953125,-0.8701171875,0.4541015625,0.2666015625
411,1.0,9.0,-14.0,-23.0,-6.0,6.0,26.0,-2.0,-0.24017333984375,0.55694580078125,0.607666015625,0.51263427734375,-0.86181640625,0.4560546875,0.27294921875
412,1.0,-2.0,3.0,-18.0,5.0,3.0,-4.0,25.0,-0.23956298828125,0.556396484375,0.60833740234375,0.51275634765625,-0.865234375,0.44873046875,0.2783203125
413,-2.0,-7.0,-3.0,-11.0,-4.0,-14.0,3.0,-13.0,-0.2391357421875,0.55584716796875,0.608642578125,0.51318359375,-0.865234375,0.4345703125,0.2744140625
414,0.0,1.0,-9.0,40.0,-1.0,9.0,-14.0,11.0,-0.23870849609375,0.5555419921875,0.60870361328125,0.51361083984375,-0.87255859375,0.435546875,0.275390625
415,0.0,-2.0,7.0,-4.0,2.0,-2.0,-3.0,-5.0,-0.2384033203125,0.55535888671875,0.6087646484375,0.51385498046875,-0.859375,0.4375,0.275390625
416,8.0,1.0,0.0,-6.0,-1.0,-2.0,-13.0,3.0,-0.23822021484375,0.55499267578125,0.60888671875,0.51416015625,-0.86279296875,0.42138671875,0.29443359375
417,-6.0,-2.0,-7.0,-1.0,-3.0,8.0,17.0,6.0,-0.2379150390625,0.5550537109375,0.60888671875,0.51434326171875,-0.86328125,0.42333984375,0.283203125
418,-11.0,-4.0,3.0,8.0,-1.0,6.0,19.0,0.0,-0.23748779296875,0.55499267578125,0.6090087890625,0.514404296875,-0.86376953125,0.42919921875,0.29443359375
419,5.0,-4.0,1.0,62.0,12.0,3.0,-23.0,11.0,-0.23712158203125,0.554931640625,0.60919189453125,0.51446533203125,-0.87060546875,0.4345703125,0.294921875
420,-2.0,0.0,-9.0,-37.0,-3.0,-8.0,64.0,-6.0,-0.23663330078125,0.554931640625,0.60931396484375,0.51446533203125,-0.87548828125,0.43408203125,0.294921875
421,5.0,-1.0,4.0,-4.0,1.0,-6.0,-45.0,-3.0,-0.236083984375,0.55499267578125,0.609619140625,0.5142822265625,-0.85986328125,0.43701171875,0.29150390625
422,-2.0,0.0,-8.0,-2.0,-9.0,4.0,-2.0,3.0,-0.2357177734375,0.5552978515625,0.60968017578125,0.51409912109375,-0.8671875,0.44140625,0.2802734375
423,-3.0,2.0,3.0,-21.0,-8.0,1.0,-12.0,-23.0,-0.23541259765625,0.555419921875,0.60986328125,0.51385498046875,-0.86767578125,0.44140625,0.28515625
424,-4.0,1.0,11.0,-20.0,-4.0,-3.0,6.0,-8.0,-0.23516845703125,0.5556640625,0.6099853515625,0.51361083984375,-0.8642578125,0.4384765625,0.27978515625
425,-1.0,-1.0,-12.0,20.0,8.0,7.0,-7.0,7.0,-0.2347412109375,0.555908203125,0.610107421875,0.51336669921875,-0.85400390625,0.45166015625,0.27783203125
426,6.0,3.0,3.0,-12.0,0.0,-2.0,18.0,11.0,-0.23443603515625,0.5562744140625,0.610107421875,0.51312255859375,-0.8564453125,0.45068359375,0.27197265625
427,-6.0,-6.0,-3.0,13.0,-1.0,0.0,4.0,3.0,-0.234130859375,0.556396484375,0.61029052734375,0.51287841796875,-0.85205078125,0.4443359375,0.2783203125
428,4.0,3.0,-1.0,-13.0,-4.0,1.0,8.0,9.0,-0.233642578125,0.55657958984375,0.6104736328125,0.5126953125,-0.84228515625,0.44384765625,0.27734375
429,-11.0,2.0,5.0,17.0,-1.0,6.0,-25.0,40.0,-0.233154296875,0.556884765625,0.61065673828125,0.512451171875,-0.84033203125,0.4482421875,0.267578125
430,6.0,0.0,0.0,-31.0,5.0,-15.0,-18.0,-3.0,-0.23272705078125,0.556884765625,0.6109619140625,0.51220703125,-0.845703125,0.435546875,0.2734375
431,-1.0,-4.0,12.0,1.0,-5.0,8.0,8.0,-24.0,-0.232177734375,0.5570068359375,0.611328125,0.51190185546875,-0.85107421875,0.4404296875,0.26611328125
432,-6.0,-4.0,-22.0,20.0,10.0,7.0,-19.0,-13.0,-0.2315673828125,0.5572509765625,0.6116943359375,0.511474609375,-0.8544921875,0.44140625,0.26123046875
433,1.0,0.0,-9.0,-19.0,-11.0,2.0,36.0,0.0,-0.2308349609375,0.55731201171875,0.6121826171875,0.5111083984375,-0.85009765625,0.43603515625,0.27001953125
434,-10.0,-6.0,6.0,43.0,7.0,-11.0,-62.0,-3.0,-0.22998046875,0.5576171875,0.61260986328125,0.5106201171875,-0.85205078125,0.439453125,0.2705078125
435,15.0,4.0,14.0,17.0,0.0,3.0,15.0,43.0,-0.22894287109375,0.55804443359375,0.613037109375,0.5101318359375,-0.8447265625,0.4375,0.2724609375
436,-8.0,-3.0,-11.0,-6.0,4.0,2.0,-35.0,-20.0,-0.2274169921875,0.55877685546875,0.61346435546875,0.50958251953125,-0.8203125,0.447265625,0.26171875
437,2.0,1.0,8.0,24.0,-14.0,-13.0,-1.0,-14.0,-0.22515869140625,0.55963134765625,0.614013671875,0.5089111328125,-0.79833984375,0.4560546875,0.2529296875
438,-1.0,0.0,-2.0,-33.0,1.0,-3.0,17.0,-2.0,-0.22174072265625,0.56048583984375,0.61492919921875,0.50836181640625,-0.76953125,0.4619140625,0.25537109375
439,-6.0,-3.0,-13.0,-5.0,4.0,-1.0,14.0,-2.0,-0.217041015625,0.5599365234375,0.616943359375,0.508544921875,-0.7734375,0.48583984375,0.28759765625
440,2.0,-2.0,8.0,34.0,-2.0,7.0,-9.0,7.0,-0.21136474609375,0.55718994140625,0.620361328125,0.50982666015625,-0.80517578125,0.4833984375,0.30419921875
441,7.0,5.0,-4.0,-77.0,-9.0,-12.0,-1.0,-6.0,-0.20367431640625,0.5521240234375,0.6253662109375,0.5123291015625,-0.80078125,0.43896484375,0.3251953125
442,-3.0,-12.0,-14.0,32.0,-5.0,-7.0,2.0,-13.0,-0.19232177734375,0.5465087890625,0.631103515625,0.51568603515625,-0.7724609375,0.45458984375,0.314453125
443,-3.0,6.0,10.0,7.0,3.0,-1.0,-31.0,-2.0,-0.17803955078125,0.5404052734375,0.63775634765625,0.51910400390625,-0.7431640625,0.46728515625,0.31494140625
444,1.0,-2.0,-7.0,-32.0,4.0,-13.0,29.0,9.0,-0.1602783203125,0.53399658203125,0.6455078125,0.52191162109375,-0.689453125,0.47119140625,0.29736328125
445,-1.0,0.0,6.0,-8.0,14.0,1.0,-75.0,-14.0,-0.14129638671875,0.52801513671875,0.65374755859375,0.52325439453125,-0.63037109375,0.47607421875,0.30517578125
446,-2.0,-3.0,-7.0,-59.0,-15.0,-11.0,13.0,-6.0,-0.12127685546875,0.52392578125,0.661376953125,0.52276611328125,-0.63037109375,0.47998046875,0.294921875
447,-6.0,-6.0,-14.0,0.0,5.0,3.0,3.0,0.0,-0.09930419921875,0.521240234375,0.66851806640625,0.52093505859375,-0.61767578125,0.4931640625,0.29833984375
448,-6.0,-4.0,-6.0,6.0,-1.0,2.0,-17.0,-3.0,-0.07421875,0.51873779296875,0.67626953125,0.5177001953125,-0.6005859375,0.53662109375,0.25927734375
449,3.0,1.0,6.0,-7.0,-11.0,-1.0,19.0,-15.0,-0.04541015625,0.515625,0.6844482421875,0.5133056640625,-0.53515625,0.56689453125,0.234375
450,-4.0,0.0,-4.0,6.0,0.0,0.0,-16.0,23.0,-0.01373291015625,0.51043701171875,0.6932373046875,0.50848388671875,-0.48193359375,0.59765625,0.2265625
451,2.0,-3.0,-7.0,-10.0,1.0,5.0,-4.0,3.0,0.0196533203125,0.50262451171875,0.70263671875,0.503173828125,-0.4365234375,0.65771484375,0.24853515625
452,-3.0,-2.0,4.0,-2.0,-1.0,-21.0,-20.0,-17.0,0.0537109375,0.49456787109375,0.711181640625,0.49664306640625,-0.3583984375,0.69189453125,0.25830078125
453,-1.0,-6.0,-5.0,24.0,-2.0,-2.0,-7.0,8.0,0.087158203125,0.4891357421875,0.71746826171875,0.4881591796875,-0.30126953125,0.7119140625,0.2314453125
454,2.0,-3.0,-1.0,7.0,7.0,15.0,5.0,-8.0,0.11749267578125,0.48455810546875,0.72320556640625,0.477783203125,-0.2587890625,0.75,0.2919921875
455,-5.0,5.0,-3.0,-25.0,-8.0,-1.0,12.0,3.0,0.1444091796875,0.480712890625,0.728271484375,0.46649169921875,-0.2255859375,0.74951171875,0.42529296875
456,0.0,-2.0,7.0,35.0,-1.0,2.0,-1.0,7.0,0.1697998046875,0.47930908203125,0.7308349609375,0.4552001953125,-0.19775390625,0.77099609375,0.47412109375
457,0.0,5.0,-5.0,-29.0,-1.0,-5.0,19.0,-5.0,0.19488525390625,0.48046875,0.7314453125,0.44281005859375,-0.13818359375,0.81591796875,0.4736328125
458,3.0,2.0,3.0,45.0,4.0,-1.0,-8.0,-5.0,0.21807861328125,0.4830322265625,0.7325439453125,0.427001953125,-0.07470703125,0.8310546875,0.51416015625
459,0.0,-5.0,-6.0,-69.0,-12.0,-1.0,4.0,-10.0,0.239990234375,0.48748779296875,0.73309326171875,0.40899658203125,-0.03173828125,0.904296875,0.521484375
460,-3.0,-8.0,-10.0,16.0,-2.0,-1.0,-6.0,-2.0,0.261474609375,0.49365234375,0.73248291015625,0.3890380859375,-0.01904296875,0.95849609375,0.51953125
461,-1.0,3.0,-1.0,0.0,4.0,0.0,-1.0,1.0,0.2822265625,0.50018310546875,0.7314453125,0.36749267578125,-0.02685546875,1.03173828125,0.498046875
462,2.0,2.0,5.0,12.0,-2.0,3.0,10.0,-1.0,0.30316162109375,0.50567626953125,0.73028564453125,0.34490966796875,-0.04931640625,1.0703125,0.4560546875
463,-1.0,-4.0,2.0,40.0,7.0,-6.0,0.0,-2.0,0.32550048828125,0.50848388671875,0.7293701171875,0.32159423828125,-0.068359375,1.05908203125,0.44970703125
464,-4.0,-4.0,-6.0,-74.0,-16.0,-1.0,2.0,5.0,0.3507080078125,0.50811767578125,0.7276611328125,0.29864501953125,-0.04345703125,1.12109375,0.40380859375
465,0.0,5.0,0.0,54.0,1.0,4.0,13.0,-6.0,0.3778076171875,0.50341796875,0.7261962890625,0.2764892578125,0.14501953125,1.35498046875,0.41455078125
466,-1.0,-2.0,-6.0,-49.0,-3.0,-2.0,1.0,0.0,0.39166259765625,0.51214599609375,0.7156982421875,0.268310546875,0.7138671875,2.7265625,-0.052734375
467,-1.0,1.0,9.0,88.0,5.0,-7.0,-9.0,23.0,0.37835693359375,0.49285888671875,0.72998046875,0.2845458984375,0.43408203125,2.00927734375,0.35693359375
468,6.0,7.0,-1.0,-40.0,8.0,16.0,3.0,11.0,0.36090087890625,0.47076416015625,0.74444580078125,0.3062744140625,0.35888671875,0.89404296875,0.69970703125
469,-6.0,-7.0,-2.0,-19.0,-5.0,-13.0,-5.0,-18.0,0.35235595703125,0.45458984375,0.7529296875,0.31951904296875,0.00537109375,0.37646484375,0.765625
470,-3.0,-3.0,7.0,1.0,1.0,2.0,4.0,-6.0,0.3572998046875,0.45025634765625,0.75103759765625,0.32470703125,0.201171875,0.4951171875,0.6318359375
471,-5.0,1.0,0.0,17.0,-1.0,-5.0,7.0,-4.0,0.36669921875,0.4517822265625,0.745849609375,0.32403564453125,0.271484375,0.75439453125,0.4091796875
472,-4.0,-2.0,15.0,-4.0,4.0,11.0,35.0,6.0,0.37445068359375,0.45245361328125,0.7437744140625,0.31903076171875,0.38818359375,0.9365234375,0.28515625
473,5.0,-2.0,-21.0,-28.0,-6.0,-29.0,-12.0,-7.0,0.378173828125,0.45111083984375,0.74481201171875,0.3140869140625,0.4541015625,1.01318359375,0.21923828125
474,3.0,3.0,1.0,-19.0,-9.0,1.0,26.0,-5.0,0.37725830078125,0.44775390625,0.747802734375,0.31280517578125,0.3994140625,0.9970703125,0.17724609375
475,-2.0,-5.0,-6.0,-2.0,-4.0,-3.0,-6.0,4.0,0.37347412109375,0.443359375,0.75164794921875,0.314453125,0.32373046875,0.869140625,0.19873046875
476,-5.0,-1.0,5.0,48.0,3.0,-3.0,-1.0,-5.0,0.3704833984375,0.4412841796875,0.75360107421875,0.31622314453125,0.232421875,0.74072265625,0.22802734375
477,-2.0,-7.0,11.0,18.0,2.0,22.0,7.0,5.0,0.37054443359375,0.44342041015625,0.7523193359375,0.31610107421875,0.21044921875,0.75634765625,0.24169921875
478,-1.0,-9.0,-12.0,54.0,3.0,-11.0,-13.0,-8.0,0.37286376953125,0.44879150390625,0.74884033203125,0.31414794921875,0.224609375,0.87841796875,0.23193359375
479,7.0,8.0,11.0,-24.0,5.0,0.0,5.0,2.0,0.37518310546875,0.45440673828125,0.74530029296875,0.31182861328125,0.23486328125,0.99658203125,0.203125
480,1.0,6.0,-1.0,-22.0,5.0,6.0,-3.0,-6.0,0.3753662109375,0.45733642578125,0.74383544921875,0.31072998046875,0.23486328125,1.048828125,0.2236328125
481,-3.0,1.0,-15.0,10.0,4.0,-11.0,-23.0,8.0,0.37347412109375,0.45721435546875,0.74462890625,0.31121826171875,0.21435546875,0.99951171875,0.26513671875
482,3.0,-2.0,9.0,26.0,3.0,-3.0,-12.0,-9.0,0.37115478515625,0.45562744140625,0.74627685546875,0.31243896484375,0.18896484375,0.9248046875,0.30712890625
483,1.0,1.0,4.0,27.0,-2.0,-16.0,4.0,-21.0,0.36968994140625,0.4541015625,0.7474365234375,0.31365966796875,0.18701171875,0.89111328125,0.34423828125
484,-4.0,-2.0,-8.0,-2.0,-6.0,-10.0,0.0,18.0,0.3695068359375,0.4534912109375,0.74749755859375,0.31463623046875,0.1982421875,0.900390625,0.34619140625
485,-2.0,-3.0,10.0,8.0,-6.0,6.0,-2.0,-18.0,0.3697509765625,0.45306396484375,0.7471923828125,0.31573486328125,0.2158203125,0.93994140625,0.35888671875
486,5.0,5.0,-1.0,12.0,8.0,1.0,15.0,18.0,0.36956787109375,0.4521484375,0.7471923828125,0.317138671875,0.21875,0.955078125,0.3564453125
487,-1.0,-1.0,-9.0,-55.0,-3.0,6.0,-2.0,4.0,0.3687744140625,0.45050048828125,0.747802734375,0.31884765625,0.21337890625,0.9423828125,0.3623046875
488,1.0,-6.0,10.0,5.0,-3.0,-7.0,-16.0,-7.0,0.36798095703125,0.44873046875,0.7486572265625,0.32037353515625,0.21826171875,0.9287109375,0.36279296875
489,0.0,-4.0,-5.0,-3.0,2.0,-5.0,14.0,-6.0,0.36761474609375,0.447265625,0.749267578125,0.32147216796875,0.2314453125,0.92919921875,0.3564453125
490,-3.0,2.0,0.0,-18.0,-11.0,4.0,-6.0,3.0,0.36761474609375,0.4461669921875,0.74957275390625,0.3221435546875,0.240234375,0.93359375,0.33203125
491,0.0,-3.0,-15.0,-61.0,-11.0,8.0,3.0,-4.0,0.36785888671875,0.44525146484375,0.74981689453125,0.3226318359375,0.25634765625,0.92626953125,0.31787109375
492,3.0,2.0,10.0,47.0,2.0,2.0,-13.0,3.0,0.36834716796875,0.44439697265625,0.74993896484375,0.322998046875,0.2607421875,0.916015625,0.3095703125
493,0.0,-4.0,2.0,-27.0,10.0,19.0,8.0,13.0,0.368896484375,0.44354248046875,0.7501220703125,0.32318115234375,0.26953125,0.9013671875,0.3056640625
494,-8.0,-4.0,6.0,88.0,-2.0,-10.0,11.0,-12.0,0.36932373046875,0.442626953125,0.7503662109375,0.32330322265625,0.2763671875,0.89453125,0.30419921875
495,8.0,-6.0,-12.0,-79.0,-16.0,-2.0,-47.0,-3.0,0.3695068359375,0.44183349609375,0.75067138671875,0.323486328125,0.27392578125,0.892578125,0.31640625
496,-4.0,4.0,-3.0,1.0,6.0,7.0,-24.0,-12.0,0.36956787109375,0.44110107421875,0.7509765625,0.3236083984375,0.27294921875,0.89453125,0.3232421875
497,-1.0,4.0,6.0,18.0,-7.0,0.0,0.0,0.0,0.3695068359375,0.44061279296875,0.75128173828125,0.32373046875,0.267578125,0.8994140625,0.33251953125
498,1.0,-3.0,-13.0,-12.0,3.0,-6.0,8.0,-1.0,0.36932373046875,0.440185546875,0.75164794921875,0.32373046875,0.2666015625,0.90380859375,0.34375
499,-7.0,-6.0,5.0,55.0,1.0,-2.0,15.0,-8.0,0.36907958984375,0.4398193359375,0.751953125,0.32366943359375,0.26025390625,0.90966796875,0.34619140625
500,5.0,-2.0,-10.0,-7.0,1.0,-9.0,13.0,11.0,0.36895751953125,0.43951416015625,0.752197265625,0.3236083984375,0.25634765625,0.90966796875,0.35107421875
501,-1.0,3.0,9.0,20.0,-1.0,0.0,-15.0,-3.0,0.36883544921875,0.43914794921875,0.75244140625,0.32373046875,0.24609375,0.91748046875,0.35546875
502,-1.0,1.0,-3.0,-66.0,-6.0,5.0,-5.0,-13.0,0.3687744140625,0.4385986328125,0.752685546875,0.32403564453125,0.2373046875,0.9150390625,0.359375
503,-5.0,-5.0,-13.0,24.0,-4.0,-6.0,18.0,-2.0,0.36871337890625,0.43804931640625,0.7528076171875,0.32452392578125,0.2265625,0.91845703125,0.345703125
504,-6.0,-5.0,-9.0,-57.0,0.0,-24.0,-15.0,-12.0,0.36883544921875,0.437255859375,0.75299072265625,0.3250732421875,0.2314453125,0.92236328125,0.33837890625
505,2.0,-5.0,2.0,4.0,4.0,15.0,72.0,20.0,0.368896484375,0.43634033203125,0.75323486328125,0.32568359375,0.2353515625,0.921875,0.34033203125
506,-2.0,-4.0,-2.0,-27.0,-6.0,3.0,8.0,19.0,0.368896484375,0.435302734375,0.75360107421875,0.326171875,0.2392578125,0.908203125,0.33642578125
507,-10.0,7.0,15.0,47.0,10.0,3.0,11.0,-29.0,0.36907958984375,0.4345703125,0.75384521484375,0.326416015625,0.2509765625,0.8984375,0.33056640625
508,1.0,0.0,1.0,-14.0,0.0,-1.0,-2.0,38.0,0.36932373046875,0.43414306640625,0.75390625,0.3265380859375,0.25927734375,0.896484375,0.32958984375
509,3.0,2.0,20.0,31.0,5.0,-5.0,17.0,-3.0,0.36956787109375,0.4339599609375,0.75396728515625,0.32647705078125,0.2646484375,0.89697265625,0.33544921875
510,-1.0,-11.0,-25.0,-26.0,-6.0,-12.0,-9.0,-10.0,0.36962890625,0.43377685546875,0.7540283203125,0.326416015625,0.26416015625,0.9033203125,0.34033203125
511,-7.0,1.0,13.0,-5.0,13.0,10.0,-8.0,4.0,0.36968994140625,0.43359375,0.754150390625,0.32635498046875,0.26708984375,0.9033203125,0.34375
512,1.0,6.0,-9.0,19.0,-11.0,-6.0,-2.0,0.0,0.36956787109375,0.43328857421875,0.75433349609375,0.32635498046875,0.26513671875,0.89990234375,0.353515625
513,-8.0,-5.0,-3.0,-39.0,-10.0,-5.0,-32.0,-19.0,0.3695068359375,0.4329833984375,0.75457763671875,0.32635498046875,0.26416015625,0.900390625,0.35400390625
514,0.0,0.0,6.0,16.0,1.0,-1.0,-12.0,-7.0,0.3695068359375,0.43255615234375,0.75482177734375,0.32635498046875,0.26611328125,0.90185546875,0.35888671875
515,-3.0,-4.0,-13.0,-9.0,-4.0,-5.0,2.0,9.0,0.36956787109375,0.43206787109375,0.7550048828125,0.326416015625,0.2666015625,0.90234375,0.36376953125
516,4.0,3.0,7.0,15.0,5.0,11.0,-22.0,-24.0,0.3697509765625,0.431640625,0.75518798828125,0.326416015625,0.2666015625,0.9052734375,0.35107421875
517,-3.0,-2.0,-5.0,-23.0,-9.0,-25.0,-43.0,42.0,0.36981201171875,0.4310302734375,0.75543212890625,0.32647705078125,0.2646484375,0.900390625,0.35791015625
518,1.0,0.0,-4.0,-7.0,2.0,1.0,-9.0,-4.0,0.3699951171875,0.43048095703125,0.75567626953125,0.3265380859375,0.265625,0.892578125,0.35302734375
519,-7.0,-6.0,7.0,19.0,-2.0,9.0,-5.0,7.0,0.3701171875,0.42999267578125,0.755859375,0.32659912109375,0.26611328125,0.89453125,0.35302734375
520,5.0,-1.0,-7.0,-14.0,-10.0,-4.0,9.0,16.0,0.3702392578125,0.42962646484375,0.7559814453125,0.32672119140625,0.26025390625,0.89697265625,0.353515625
521,-1.0,1.0,-2.0,14.0,0.0,8.0,2.0,0.0,0.37030029296875,0.42938232421875,0.75604248046875,0.3267822265625,0.2587890625,0.8994140625,0.3466796875
522,-6.0,-6.0,-13.0,-27.0,4.0,7.0,-9.0,10.0,0.370361328125,0.4290771484375,0.75616455078125,0.32684326171875,0.2646484375,0.8994140625,0.35986328125
523,5.0,1.0,1.0,-28.0,-2.0,-11.0,1.0,-4.0,0.37042236328125,0.42889404296875,0.7562255859375,0.326904296875,0.26708984375,0.9013671875,0.349609375
524,-5.0,1.0,-2.0,5.0,-5.0,8.0,11.0,-2.0,0.37054443359375,0.4287109375,0.7562255859375,0.326904296875,0.26904296875,0.89892578125,0.34814453125
525,-4.0,-6.0,-19.0,-2.0,7.0,-8.0,-22.0,-25.0,0.37066650390625,0.42852783203125,0.75628662109375,0.326904296875,0.2724609375,0.89892578125,0.3515625
526,6.0,2.0,11.0,-25.0,-13.0,-1.0,-5.0,12.0,0.3707275390625,0.42840576171875,0.75628662109375,0.32696533203125,0.267578125,0.89404296875,0.3486328125
527,-7.0,-6.0,-9.0,15.0,-5.0,-7.0,-18.0,-22.0,0.370849609375,0.42828369140625,0.75628662109375,0.3270263671875,0.27197265625,0.892578125,0.3486328125
528,-3.0,-4.0,0.0,-18.0,11.0,0.0,1.0,-12.0,0.370849609375,0.4283447265625,0.75628662109375,0.3270263671875,0.267578125,0.896484375,0.35205078125
529,1.0,0.0,3.0,9.0,3.0,4.0,0.0,7.0,0.37091064453125,0.42822265625,0.75628662109375,0.32708740234375,0.27001953125,0.89892578125,0.35546875
530,-4.0,3.0,7.0,47.0,3.0,0.0,0.0,-2.0,0.37091064453125,0.427978515625,0.75640869140625,0.3271484375,0.27392578125,0.89453125,0.36181640625
531,4.0,2.0,-9.0,-56.0,-11.0,-5.0,-15.0,8.0,0.3707275390625,0.427734375,0.756591796875,0.3272705078125,0.275390625,0.8896484375,0.361328125
532,0.0,2.0,10.0,65.0,-8.0,2.0,11.0,1.0,0.3707275390625,0.427734375,0.756591796875,0.3272705078125,0.271484375,0.890625,0.3623046875
533,-4.0,-5.0,2.0,2.0,6.0,7.0,19.0,-2.0,0.3707275390625,0.427734375,0.75653076171875,0.3272705078125,0.2763671875,0.89306640625,0.35302734375
534,-5.0,1.0,-1.0,-8.0,2.0,-3.0,-10.0,1.0,0.3707275390625,0.427734375,0.75653076171875,0.3272705078125,0.27978515625,0.89794921875,0.35498046875
535,4.0,0.0,-2.0,-20.0,-2.0,7.0,11.0,10.0,0.3707275390625,0.427734375,0.75653076171875,0.3272705078125,0.27587890625,0.892578125,0.35888671875
536,3.0,1.0,4.0,-11.0,-4.0,-1.0,5.0,0.0,0.37066650390625,0.42779541015625,0.75653076171875,0.32733154296875,0.2724609375,0.8955078125,0.36767578125
537,1.0,3.0,-1.0,6.0,-3.0,-7.0,2.0,-9.0,0.37066650390625,0.42779541015625,0.75653076171875,0.32733154296875,0.27294921875,0.8984375,0.359375
538,0.0,2.0,0.0,-22.0,-4.0,3.0,-8.0,-10.0,0.37066650390625,0.42779541015625,0.75653076171875,0.32733154296875,0.27099609375,0.900390625,0.36279296875
539,-2.0,-5.0,0.0,7.0,4.0,4.0,9.0,10.0,0.37060546875,0.42767333984375,0.756591796875,0.327392578125,0.27197265625,0.89697265625,0.36181640625
540,0.0,-2.0,-3.0,-14.0,1.0,-3.0,3.0,-8.0,0.37054443359375,0.42767333984375,0.756591796875,0.32745361328125,0.26806640625,0.8984375,0.36767578125
541,-3.0,-5.0,-9.0,1.0,-17.0,-5.0,0.0,-10.0,0.37060546875,0.4276123046875,0.756591796875,0.3275146484375,0.26708984375,0.90673828125,0.359375
542,-2.0,0.0,4.0,11.0,7.0,-1.0,-10.0,1.0,0.37060546875,0.4273681640625,0.75665283203125,0.32763671875,0.26904296875,0.90234375,0.36279296875
543,1.0,-2.0,0.0,-43.0,-10.0,6.0,3.0,3.0,0.37060546875,0.42706298828125,0.75677490234375,0.3277587890625,0.2666015625,0.8955078125,0.36572265625
544,-1.0,-3.0,-2.0,68.0,-3.0,10.0,-6.0,-4.0,0.37066650390625,0.42681884765625,0.7568359375,0.32794189453125,0.271484375,0.8984375,0.365234375
545,-4.0,-2.0,-2.0,-49.0,3.0,-21.0,12.0,-4.0,0.37078857421875,0.4266357421875,0.75677490234375,0.32806396484375,0.26904296875,0.89697265625,0.353515625
546,3.0,2.0,1.0,43.0,-2.0,1.0,-2.0,7.0,0.370849609375,0.4263916015625,0.7568359375,0.32818603515625,0.27001953125,0.89404296875,0.35595703125
547,-4.0,-1.0,5.0,-14.0,3.0,1.0,2.0,-2.0,0.37091064453125,0.4261474609375,0.75689697265625,0.32830810546875,0.2734375,0.89306640625,0.3603515625
548,-4.0,-9.0,-10.0,27.0,3.0,0.0,13.0,-4.0,0.37091064453125,0.4261474609375,0.75689697265625,0.32830810546875,0.275390625,0.89013671875,0.36376953125
549,1.0,-1.0,1.0,-20.0,-9.0,3.0,-11.0,-13.0,0.37091064453125,0.4261474609375,0.75689697265625,0.328369140625,0.27587890625,0.890625,0.35693359375
550,-5.0,2.0,0.0,-23.0,-7.0,-3.0,-16.0,7.0,0.370849609375,0.4261474609375,0.75689697265625,0.328369140625,0.27978515625,0.892578125,0.36328125
551,6.0,0.0,-10.0,95.0,-1.0,-2.0,4.0,-1.0,0.370849609375,0.4261474609375,0.75689697265625,0.328369140625,0.28076171875,0.89599609375,0.361328125
552,-2.0,-2.0,1.0,-71.0,1.0,-9.0,-10.0,-9.0,0.370849609375,0.4261474609375,0.75689697265625,0.328369140625,0.2783203125,0.896484375,0.3642578125
553,-3.0,-2.0,-4.0,1.0,4.0,9.0,9.0,14.0,0.37091064453125,0.42608642578125,0.75701904296875,0.32818603515625,0.283203125,0.89501953125,0.3642578125
554,-3.0,2.0,-4.0,-16.0,-3.0,-6.0,5.0,-15.0,0.370849609375,0.426025390625,0.75714111328125,0.3280029296875,0.2822265625,0.88525390625,0.35400390625
555,-3.0,1.0,0.0,-5.0,1.0,3.0,-1.0,0.0,0.37078857421875,0.42620849609375,0.7572021484375,0.3277587890625,0.283203125,0.88427734375,0.3466796875
556,0.0,2.0,-3.0,-1.0,1.0,-2.0,-11.0,2.0,0.37066650390625,0.4263916015625,0.7572021484375,0.32757568359375,0.2822265625,0.8828125,0.353515625
557,0.0,-4.0,-5.0,-12.0,-15.0,-1.0,-12.0,-1.0,0.37042236328125,0.426513671875,0.75732421875,0.32745361328125,0.28466796875,0.892578125,0.35986328125
558,1.0,-1.0,3.0,-22.0,-5.0,-14.0,-11.0,8.0,0.37017822265625,0.42645263671875,0.7574462890625,0.32745361328125,0.28173828125,0.888671875,0.36181640625
559,0.0,1.0,-1.0,7.0,17.0,-3.0,5.0,-14.0,0.3699951171875,0.42633056640625,0.75762939453125,0.327392578125,0.28515625,0.8896484375,0.36083984375
560,-4.0,1.0,4.0,-2.0,-4.0,-4.0,-7.0,12.0,0.369873046875,0.4261474609375,0.7578125,0.32733154296875,0.2890625,0.89404296875,0.369140625
561,-1.0,-1.0,-4.0,1.0,7.0,-5.0,-24.0,-11.0,0.36962890625,0.4261474609375,0.75799560546875,0.32733154296875,0.28271484375,0.89404296875,0.3642578125
562,-4.0,-1.0,6.0,42.0,2.0,10.0,17.0,-18.0,0.36932373046875,0.4261474609375,0.75811767578125,0.32733154296875,0.271484375,0.89306640625,0.36669921875
563,2.0,-5.0,-3.0,-2.0,0.0,-6.0,2.0,16.0,0.369140625,0.42620849609375,0.75823974609375,0.32720947265625,0.27197265625,0.89697265625,0.3701171875
564,1.0,2.0,4.0,-26.0,-2.0,-2.0,-55.0,-19.0,0.36907958984375,0.42620849609375,0.75823974609375,0.3272705078125,0.2705078125,0.8916015625,0.37060546875
565,-1.0,-4.0,1.0,30.0,-4.0,-1.0,11.0,2.0,0.36907958984375,0.42620849609375,0.75823974609375,0.3272705078125,0.271484375,0.8974609375,0.36572265625
566,-8.0,-5.0,-5.0,-3.0,1.0,-4.0,5.0,-5.0,0.36871337890625,0.4261474609375,0.7584228515625,0.32733154296875,0.267578125,0.89208984375,0.3740234375
567,0.0,3.0,3.0,-6.0,-1.0,-5.0,1.0,6.0,0.36871337890625,0.4261474609375,0.7584228515625,0.327392578125,0.2666015625,0.89013671875,0.36767578125
568,0.0,-3.0,-6.0,-7.0,-6.0,2.0,21.0,3.0,0.36865234375,0.4261474609375,0.7584228515625,0.327392578125,0.26708984375,0.89599609375,0.37109375
569,-1.0,-1.0,2.0,6.0,0.0,7.0,-10.0,5.0,0.36865234375,0.4261474609375,0.7584228515625,0.327392578125,0.27294921875,0.8994140625,0.36767578125
570,1.0,-3.0,-4.0,-11.0,-1.0,9.0,-7.0,-9.0,0.36834716796875,0.426025390625,0.758544921875,0.32757568359375,0.27197265625,0.89599609375,0.37353515625
571,-6.0,-2.0,4.0,7.0,-7.0,-5.0,13.0,-6.0,0.3682861328125,0.4259033203125,0.75860595703125,0.32763671875,0.28173828125,0.888671875,0.36474609375
572,2.0,-1.0,-1.0,-5.0,5.0,11.0,11.0,4.0,0.3682861328125,0.4259033203125,0.7586669921875,0.32763671875,0.28173828125,0.892578125,0.369140625
573,0.0,-1.0,-5.0,-27.0,-2.0,-6.0,4.0,-12.0,0.3687744140625,0.42633056640625,0.75836181640625,0.32708740234375,0.28125,0.87939453125,0.3671875
574,0.0,0.0,9.0,32.0,7.0,27.0,1.0,6.0,0.37017822265625,0.42706298828125,0.75762939453125,0.32623291015625,0.294921875,0.880859375,0.376953125
575,0.0,3.0,-11.0,-29.0,4.0,-1.0,-5.0,-1.0,0.37255859375,0.42852783203125,0.7562255859375,0.324951171875,0.296875,0.89599609375,0.404296875
576,-5.0,-4.0,1.0,24.0,-7.0,-9.0,11.0,-17.0,0.37646484375,0.43115234375,0.75347900390625,0.3232421875,0.3046875,0.9443359375,0.40283203125
577,3.0,-1.0,-1.0,-11.0,9.0,0.0,5.0,15.0,0.38067626953125,0.43280029296875,0.7510986328125,0.32171630859375,0.35009765625,0.9716796875,0.39208984375
578,2.0,-1.0,-6.0,-28.0,3.0,-9.0,-3.0,10.0,0.38330078125,0.43206787109375,0.750244140625,0.32147216796875,0.38037109375,0.92333984375,0.41455078125
579,0.0,0.0,7.0,9.0,-5.0,7.0,-5.0,-9.0,0.38482666015625,0.43182373046875,0.74957275390625,0.32171630859375,0.447265625,0.93359375,0.39404296875
580,-8.0,-2.0,-5.0,13.0,-4.0,-13.0,-15.0,6.0,0.38348388671875,0.4332275390625,0.74859619140625,0.32366943359375,0.4384765625,0.99951171875,0.3984375
581,1.0,0.0,-5.0,-9.0,-6.0,12.0,38.0,-13.0,0.37847900390625,0.43682861328125,0.747314453125,0.32769775390625,0.40234375,1.06494140625,0.37744140625
582,2.0,1.0,-1.0,-19.0,-7.0,2.0,-3.0,11.0,0.3682861328125,0.4420166015625,0.746337890625,0.3343505859375,0.3154296875,1.10498046875,0.419921875
583,-1.0,-1.0,1.0,34.0,5.0,2.0,-4.0,5.0,0.35382080078125,0.44879150390625,0.74505615234375,0.34375,0.21826171875,1.08935546875,0.44384765625
584,0.0,-2.0,4.0,13.0,-6.0,-15.0,6.0,-11.0,0.33697509765625,0.4569091796875,0.74334716796875,0.35345458984375,0.06640625,0.98974609375,0.4599609375
585,-3.0,0.0,1.0,33.0,4.0,1.0,-6.0,6.0,0.3182373046875,0.46734619140625,0.7410888671875,0.3619384765625,0.01220703125,0.9765625,0.474609375
586,-3.0,-3.0,-15.0,-30.0,3.0,2.0,-9.0,40.0,0.29742431640625,0.47906494140625,0.73883056640625,0.368896484375,-0.04541015625,0.93896484375,0.4833984375
587,-2.0,-4.0,0.0,-45.0,-14.0,3.0,-13.0,-29.0,0.27545166015625,0.490966796875,0.73681640625,0.37420654296875,-0.1162109375,0.92333984375,0.4814453125
588,-3.0,-5.0,-1.0,26.0,7.0,-3.0,49.0,-15.0,0.2535400390625,0.502197265625,0.73529052734375,0.37786865234375,-0.1474609375,0.89501953125,0.42919921875
589,0.0,-1.0,0.0,-36.0,3.0,6.0,-31.0,11.0,0.2310791015625,0.51104736328125,0.73504638671875,0.38079833984375,-0.15625,0.8876953125,0.404296875
590,1.0,0.0,4.0,52.0,-3.0,-14.0,1.0,-15.0,0.20947265625,0.518798828125,0.73486328125,0.38323974609375,-0.1748046875,0.92919921875,0.31640625
591,2.0,1.0,-3.0,-29.0,-6.0,-2.0,9.0,19.0,0.19012451171875,0.52410888671875,0.7362060546875,0.3834228515625,-0.173828125,0.900390625,0.34375
592,-1.0,-4.0,-2.0,-69.0,-4.0,5.0,-6.0,8.0,0.1728515625,0.527587890625,0.7393798828125,0.3807373046875,-0.16455078125,0.859375,0.38232421875
593,-5.0,-1.0,-18.0,25.0,-4.0,-4.0,-9.0,-8.0,0.156982421875,0.52838134765625,0.7454833984375,0.3746337890625,-0.1630859375,0.8134765625,0.408203125
594,-3.0,-5.0,8.0,20.0,11.0,1.0,6.0,-4.0,0.14447021484375,0.5302734375,0.75018310546875,0.36749267578125,-0.21142578125,0.8095703125,0.36474609375
595,-1.0,2.0,-5.0,-53.0,-19.0,-13.0,-22.0,-6.0,0.1376953125,0.53155517578125,0.75408935546875,0.36016845703125,-0.23095703125,0.84619140625,0.32373046875
596,2.0,1.0,-11.0,-25.0,-6.0,8.0,19.0,4.0,0.13726806640625,0.53155517578125,0.7581787109375,0.35162353515625,-0.09033203125,0.89111328125,0.2392578125
597,-4.0,-5.0,11.0,66.0,8.0,2.0,-25.0,-19.0,0.1380615234375,0.5283203125,0.76397705078125,0.34356689453125,0.0087890625,0.87060546875,0.20849609375
598,0.0,-2.0,-1.0,-35.0,-11.0,-20.0,1.0,4.0,0.1385498046875,0.52337646484375,0.77008056640625,0.33721923828125,0.00634765625,0.7783203125,0.21435546875
599,-1.0,-2.0,-6.0,14.0,5.0,-8.0,6.0,-6.0,0.1405029296875,0.51953125,0.77471923828125,0.33172607421875,0.01171875,0.7060546875,0.27001953125
600,1.0,0.0,-4.0,-16.0,-5.0,12.0,5.0,6.0,0.14508056640625,0.51898193359375,0.77642822265625,0.32659912109375,0.046875,0.73291015625,0.279296875
601,3.0,3.0,1.0,-30.0,0.0,-3.0,14.0,10.0,0.151611328125,0.5205078125,0.77593994140625,0.32232666015625,0.05224609375,0.787109375,0.2685546875
602,-1.0,1.0,5.0,52.0,2.0,0.0,-5.0,-15.0,0.15850830078125,0.52264404296875,0.7745361328125,0.31884765625,0.056640625,0.78076171875,0.24755859375
603,3.0,-6.0,2.0,50.0,0.0,2.0,2.0,11.0,0.16912841796875,0.52484130859375,0.77191162109375,0.31622314453125,0.087890625,0.88525390625,0.15283203125
604,-7.0,-1.0,1.0,16.0,5.0,-5.0,-11.0,0.0,0.1771240234375,0.52459716796875,0.77008056640625,0.316650390625,0.05859375,1.1103515625,0.2236328125
605,-1.0,-2.0,5.0,-15.0,-12.0,-5.0,-21.0,-32.0,0.17864990234375,0.5196533203125,0.7724609375,0.31817626953125,0.0263671875,1.0361328125,0.40380859375
606,-3.0,-3.0,-10.0,-31.0,-6.0,10.0,25.0,4.0,0.17608642578125,0.51171875,0.778076171875,0.31884765625,-0.0166015625,0.84423828125,0.580078125
607,-1.0,-4.0,6.0,32.0,1.0,-1.0,0.0,7.0,0.1759033203125,0.50860595703125,0.7801513671875,0.31890869140625,-0.1123046875,0.7294921875,0.6328125
608,1.0,0.0,-2.0,33.0,4.0,4.0,1.0,-6.0,0.18115234375,0.51300048828125,0.77667236328125,0.3173828125,0.0146484375,0.98779296875,0.55615234375
609,3.0,2.0,0.0,-24.0,-1.0,-1.0,13.0,24.0,0.18499755859375,0.51593017578125,0.7745361328125,0.3155517578125,0.029296875,1.17919921875,0.5107421875
610,-1.0,0.0,-3.0,-33.0,-7.0,-3.0,-6.0,-16.0,0.18548583984375,0.51416015625,0.7755126953125,0.315673828125,-0.0185546875,1.05517578125,0.50927734375
611,-5.0,-4.0,-1.0,49.0,12.0,-3.0,-4.0,-3.0,0.18524169921875,0.510986328125,0.7774658203125,0.3162841796875,-0.033203125,0.95751953125,0.51171875
612,0.0,1.0,2.0,-11.0,7.0,6.0,-2.0,0.0,0.18524169921875,0.508056640625,0.77923583984375,0.31671142578125,-0.0380859375,0.9404296875,0.51708984375
613,-1.0,-1.0,-4.0,-7.0,-5.0,-26.0,4.0,1.0,0.1859130859375,0.505859375,0.7802734375,0.31719970703125,-0.0380859375,0.94140625,0.48046875
614,-3.0,-2.0,-1.0,6.0,-5.0,-8.0,-13.0,-8.0,0.18658447265625,0.5040283203125,0.7811279296875,0.317626953125,-0.046875,0.92431640625,0.45166015625
615,-4.0,2.0,-1.0,-28.0,4.0,4.0,10.0,-4.0,0.18695068359375,0.50225830078125,0.7821044921875,0.3177490234375,-0.056640625,0.91357421875,0.4208984375
616,1.0,-1.0,-1.0,35.0,-8.0,-2.0,-20.0,5.0,0.18695068359375,0.5001220703125,0.783447265625,0.31781005859375,-0.06103515625,0.89013671875,0.4150390625
617,-11.0,-4.0,-3.0,6.0,7.0,15.0,5.0,-6.0,0.187255859375,0.49847412109375,0.784423828125,0.31787109375,-0.0576171875,0.85400390625,0.41015625
618,7.0,-3.0,-2.0,18.0,-4.0,-1.0,-6.0,-16.0,0.1881103515625,0.49798583984375,0.7845458984375,0.31781005859375,-0.046875,0.8701171875,0.39111328125
619,-1.0,0.0,-1.0,-27.0,-2.0,-8.0,6.0,-4.0,0.1888427734375,0.498046875,0.784423828125,0.317626953125,-0.0478515625,0.869140625,0.380859375
620,4.0,-1.0,3.0,25.0,5.0,0.0,-21.0,19.0,0.189453125,0.4979248046875,0.78436279296875,0.3175048828125,-0.03369140625,0.88330078125,0.38671875
621,-4.0,-2.0,-2.0,-10.0,-15.0,2.0,19.0,-10.0,0.1895751953125,0.4976806640625,0.78460693359375,0.3173828125,-0.02880859375,0.8818359375,0.40576171875
622,-2.0,1.0,-9.0,14.0,10.0,-2.0,10.0,8.0,0.1895751953125,0.4976806640625,0.7845458984375,0.3173828125,-0.03076171875,0.90576171875,0.42333984375
623,-6.0,-5.0,11.0,49.0,0.0,-11.0,-8.0,-5.0,0.18951416015625,0.4976806640625,0.78460693359375,0.3173828125,-0.0283203125,0.9013671875,0.4462890625
624,1.0,-1.0,-12.0,-59.0,-7.0,-9.0,-41.0,-12.0,0.1893310546875,0.498046875,0.78436279296875,0.31744384765625,-0.0263671875,0.90966796875,0.443359375
625,-2.0,4.0,6.0,1.0,-1.0,2.0,2.0,5.0,0.1893310546875,0.4986572265625,0.78411865234375,0.317138671875,-0.01171875,0.91796875,0.4501953125
626,-2.0,-4.0,10.0,7.0,-3.0,-5.0,-1.0,-8.0,0.1890869140625,0.498779296875,0.784423828125,0.3162841796875,0.00048828125,0.91259765625,0.46630859375
627,3.0,-2.0,-11.0,-8.0,5.0,5.0,0.0,4.0,0.18896484375,0.49932861328125,0.78460693359375,0.31512451171875,0.0029296875,0.91162109375,0.4775390625
628,-3.0,0.0,6.0,29.0,1.0,-1.0,4.0,0.0,0.189697265625,0.50189208984375,0.7833251953125,0.313720703125,-0.00732421875,0.9228515625,0.45361328125
629,5.0,-4.0,-4.0,-67.0,-4.0,2.0,-9.0,31.0,0.1907958984375,0.5050048828125,0.7816162109375,0.31231689453125,-0.005859375,0.9111328125,0.4384765625
630,-3.0,0.0,0.0,19.0,-3.0,0.0,-9.0,-6.0,0.19158935546875,0.5069580078125,0.78070068359375,0.31085205078125,-0.01025390625,0.86669921875,0.423828125
631,-1.0,4.0,4.0,-11.0,-9.0,3.0,2.0,0.0,0.19281005859375,0.509521484375,0.77947998046875,0.30908203125,0.0048828125,0.87744140625,0.38232421875
632,-2.0,-5.0,-4.0,-11.0,0.0,1.0,-19.0,-12.0,0.1929931640625,0.5133056640625,0.77801513671875,0.30645751953125,0.02783203125,0.87255859375,0.3681640625
633,0.0,0.0,-4.0,42.0,8.0,8.0,7.0,9.0,0.19158935546875,0.5177001953125,0.77667236328125,0.30328369140625,0.025390625,0.88671875,0.36083984375
634,2.0,-1.0,0.0,-23.0,-6.0,-18.0,0.0,0.0,0.18865966796875,0.5234375,0.77490234375,0.2998046875,0.01123046875,0.88671875,0.3330078125
635,0.0,1.0,-5.0,0.0,12.0,3.0,-12.0,7.0,0.18511962890625,0.5302734375,0.77239990234375,0.29632568359375,-0.01025390625,0.89599609375,0.3046875
636,0.0,0.0,-5.0,-37.0,-18.0,-5.0,1.0,-4.0,0.18218994140625,0.53839111328125,0.76873779296875,0.29302978515625,-0.00830078125,0.92919921875,0.26318359375
637,0.0,-1.0,11.0,49.0,8.0,0.0,13.0,-25.0,0.17987060546875,0.54632568359375,0.76458740234375,0.2906494140625,-0.0146484375,0.94677734375,0.23193359375
638,-4.0,-5.0,-8.0,27.0,3.0,1.0,1.0,29.0,0.17828369140625,0.552978515625,0.760498046875,0.28973388671875,-0.0419921875,0.958984375,0.23291015625
639,-4.0,-2.0,-2.0,-22.0,-15.0,2.0,2.0,9.0,0.17706298828125,0.55706787109375,0.75738525390625,0.29071044921875,-0.08984375,0.990234375,0.27099609375
640,-3.0,0.0,1.0,1.0,5.0,-3.0,5.0,-16.0,0.17694091796875,0.55902099609375,0.755126953125,0.29302978515625,-0.1220703125,0.96533203125,0.32080078125
641,2.0,-4.0,0.0,-9.0,-6.0,-1.0,-7.0,10.0,0.17816162109375,0.56011962890625,0.75299072265625,0.29571533203125,-0.10498046875,0.951171875,0.34423828125
642,-2.0,4.0,4.0,-14.0,6.0,11.0,11.0,-4.0,0.180419921875,0.56097412109375,0.750732421875,0.2984619140625,-0.078125,0.9755859375,0.35400390625
643,-3.0,-2.0,-4.0,-14.0,-4.0,-8.0,2.0,-5.0,0.18267822265625,0.561279296875,0.7489013671875,0.30108642578125,-0.0634765625,0.9716796875,0.3505859375
644,-1.0,1.0,-3.0,-11.0,-8.0,1.0,6.0,8.0,0.18438720703125,0.560791015625,0.74786376953125,0.30352783203125,-0.0478515625,0.982421875,0.35888671875
645,-6.0,-6.0,4.0,65.0,4.0,5.0,14.0,-18.0,0.18505859375,0.5601806640625,0.7470703125,0.30609130859375,-0.04150390625,0.98046875,0.37548828125
646,6.0,2.0,-1.0,-32.0,1.0,-4.0,-24.0,-4.0,0.18475341796875,0.560302734375,0.74603271484375,0.30865478515625,-0.06982421875,0.9755859375,0.39453125
647,-2.0,-1.0,4.0,-11.0,-4.0,-10.0,-7.0,3.0,0.18426513671875,0.56146240234375,0.74383544921875,0.31207275390625,-0.08740234375,1.0048828125,0.37939453125
648,2.0,1.0,-4.0,8.0,1.0,-2.0,9.0,2.0,0.183349609375,0.5621337890625,0.74188232421875,0.3160400390625,-0.09912109375,0.990234375,0.373046875
649,-1.0,-1.0,-3.0,-16.0,1.0,-10.0,-7.0,-15.0,0.18182373046875,0.5625,0.74041748046875,0.3197021484375,-0.10205078125,1.0361328125,0.380859375
650,-2.0,-2.0,-3.0,-34.0,-5.0,-4.0,-20.0,-5.0,0.17840576171875,0.56243896484375,0.7393798828125,0.32403564453125,-0.10400390625,1.1201171875,0.38525390625
651,-3.0,-4.0,-2.0,41.0,3.0,6.0,31.0,2.0,0.17169189453125,0.56097412109375,0.73992919921875,0.32891845703125,-0.119140625,1.078125,0.50244140625
652,-5.0,-2.0,0.0,-1.0,3.0,-6.0,9.0,-16.0,0.162353515625,0.559326171875,0.7403564453125,0.33551025390625,-0.2119140625,1.08154296875,0.5068359375
653,1.0,-2.0,-8.0,-29.0,-17.0,-5.0,-15.0,13.0,0.1513671875,0.55926513671875,0.73931884765625,0.3428955078125,-0.25048828125,1.07958984375,0.5
654,-1.0,-1.0,3.0,31.0,12.0,2.0,5.0,-1.0,0.1385498046875,0.56085205078125,0.7373046875,0.3499755859375,-0.23193359375,1.11474609375,0.49560546875
655,1.0,0.0,-7.0,-56.0,-7.0,-1.0,-4.0,-8.0,0.1224365234375,0.56182861328125,0.7357177734375,0.3577880859375,-0.24365234375,1.12646484375,0.5166015625
656,-4.0,-1.0,-1.0,-8.0,4.0,8.0,17.0,-4.0,0.1021728515625,0.5645751953125,0.73248291015625,0.3663330078125,-0.27685546875,1.146484375,0.51171875
657,-2.0,-2.0,-5.0,-1.0,-2.0,1.0,-23.0,2.0,0.07916259765625,0.56634521484375,0.72918701171875,0.375732421875,-0.3515625,1.0654296875,0.48486328125
658,-6.0,-4.0,-4.0,12.0,-4.0,-20.0,-1.0,7.0,0.05535888671875,0.56781005859375,0.72540283203125,0.38494873046875,-0.412109375,0.96240234375,0.44384765625
659,4.0,0.0,2.0,26.0,-3.0,1.0,-12.0,-11.0,0.0318603515625,0.56903076171875,0.72125244140625,0.39361572265625,-0.40576171875,0.935546875,0.384765625
660,-1.0,-4.0,-1.0,-9.0,2.0,1.0,-5.0,-17.0,0.0079345703125,0.56884765625,0.71771240234375,0.4014892578125,-0.4013671875,0.90283203125,0.35302734375
661,2.0,4.0,2.0,7.0,2.0,5.0,12.0,4.0,-0.015625,0.5677490234375,0.7144775390625,0.40850830078125,-0.4228515625,0.837890625,0.31982421875
662,-5.0,-3.0,2.0,42.0,0.0,-1.0,25.0,-6.0,-0.0380859375,0.56591796875,0.71124267578125,0.4151611328125,-0.44287109375,0.75830078125,0.29931640625
663,-4.0,-2.0,-6.0,-94.0,-15.0,-5.0,-2.0,-3.0,-0.0584716796875,0.56365966796875,0.70794677734375,0.4215087890625,-0.4775390625,0.70703125,0.28955078125
664,0.0,-2.0,0.0,40.0,5.0,-9.0,-7.0,7.0,-0.07623291015625,0.56182861328125,0.70440673828125,0.4268798828125,-0.4814453125,0.69873046875,0.26513671875
665,1.0,3.0,4.0,-2.0,4.0,-4.0,6.0,-8.0,-0.09259033203125,0.559814453125,0.7010498046875,0.4317626953125,-0.482421875,0.67236328125,0.259765625
666,-2.0,-2.0,-1.0,-21.0,-7.0,9.0,-2.0,-8.0,-0.108154296875,0.5579833984375,0.69757080078125,0.43621826171875,-0.5126953125,0.650390625,0.24462890625
667,1.0,-3.0,-7.0,10.0,-4.0,1.0,-6.0,-1.0,-0.122314453125,0.55615234375,0.69390869140625,0.44061279296875,-0.55712890625,0.63818359375,0.251953125
668,-1.0,1.0,3.0,5.0,-3.0,-1.0,6.0,17.0,-0.13543701171875,0.55413818359375,0.69024658203125,0.44500732421875,-0.60498046875,0.59619140625,0.265625
669,-2.0,-2.0,-4.0,8.0,4.0,-3.0,-6.0,-21.0,-0.1470947265625,0.55230712890625,0.68658447265625,0.44921875,-0.62353515625,0.5927734375,0.26171875
670,0.0,-1.0,-1.0,-25.0,0.0,11.0,6.0,-9.0,-0.158203125,0.5509033203125,0.68310546875,0.45245361328125,-0.64697265625,0.587890625,0.26171875
671,5.0,4.0,8.0,49.0,8.0,-10.0,-7.0,17.0,-0.1689453125,0.5494384765625,0.67999267578125,0.455078125,-0.67919921875,0.5732421875,0.267578125
672,-2.0,-4.0,-7.0,-59.0,-5.0,1.0,-8.0,12.0,-0.17877197265625,0.54833984375,0.67706298828125,0.45703125,-0.69189453125,0.5546875,0.27294921875
673,1.0,1.0,-7.0,-32.0,-12.0,-10.0,5.0,7.0,-0.1878662109375,0.5469970703125,0.67449951171875,0.45880126953125,-0.70947265625,0.53369140625,0.30029296875
674,-4.0,-5.0,5.0,13.0,-4.0,13.0,-1.0,-3.0,-0.1959228515625,0.54571533203125,0.67193603515625,0.46063232421875,-0.7158203125,0.52880859375,0.2900390625
675,0.0,-4.0,1.0,11.0,15.0,-5.0,-30.0,-8.0,-0.20343017578125,0.54425048828125,0.66961669921875,0.46246337890625,-0.73291015625,0.50830078125,0.30322265625
676,-1.0,-1.0,2.0,23.0,-2.0,-4.0,5.0,0.0,-0.21014404296875,0.54278564453125,0.6676025390625,0.4642333984375,-0.7529296875,0.51025390625,0.2998046875
677,-2.0,0.0,-4.0,-12.0,2.0,0.0,3.0,0.0,-0.2158203125,0.54119873046875,0.66583251953125,0.46588134765625,-0.76708984375,0.49853515625,0.3056640625
678,0.0,2.0,-6.0,-13.0,-6.0,-4.0,12.0,-11.0,-0.220947265625,0.53985595703125,0.664306640625,0.46728515625,-0.7890625,0.490234375,0.30615234375
679,-3.0,-3.0,0.0,-7.0,4.0,6.0,11.0,3.0,-0.2252197265625,0.5380859375,0.6632080078125,0.46881103515625,-0.8037109375,0.4765625,0.3056640625
680,0.0,-3.0,-1.0,8.0,-9.0,-9.0,-13.0,-2.0,-0.2283935546875,0.53656005859375,0.66241455078125,0.47021484375,-0.810546875,0.47607421875,0.29833984375
681,-3.0,-2.0,0.0,-1.0,3.0,3.0,-8.0,-4.0,-0.23095703125,0.534912109375,0.66192626953125,0.471435546875,-0.82177734375,0.48046875,0.3115234375
682,-2.0,-2.0,-4.0,-22.0,-10.0,-3.0,-5.0,3.0,-0.233154296875,0.5333251953125,0.6617431640625,0.472412109375,-0.8310546875,0.466796875,0.3056640625
683,2.0,5.0,2.0,1.0,2.0,7.0,0.0,-14.0,-0.234375,0.531982421875,0.6617431640625,0.473388671875,-0.82568359375,0.46044921875,0.31787109375
684,-6.0,-4.0,-6.0,-21.0,5.0,2.0,1.0,2.0,-0.23516845703125,0.5306396484375,0.66180419921875,0.47442626953125,-0.830078125,0.46337890625,0.3212890625
685,0.0,-4.0,-1.0,28.0,-11.0,-5.0,-3.0,1.0,-0.23583984375,0.5294189453125,0.6619873046875,0.47515869140625,-0.82958984375,0.4658203125,0.330078125
686,1.0,0.0,0.0,5.0,1.0,-3.0,-4.0,2.0,-0.2364501953125,0.5281982421875,0.6624755859375,0.47552490234375,-0.82763671875,0.47412109375,0.337890625
687,-4.0,-2.0,-5.0,-50.0,-13.0,5.0,-25.0,-12.0,-0.23681640625,0.52703857421875,0.66290283203125,0.47601318359375,-0.8212890625,0.462890625,0.3447265625
688,5.0,3.0,7.0,2.0,2.0,-1.0,4.0,13.0,-0.23663330078125,0.5262451171875,0.66314697265625,0.4766845703125,-0.81640625,0.48095703125,0.3408203125
689,-3.0,0.0,-5.0,14.0,5.0,0.0,-6.0,3.0,-0.2362060546875,0.52557373046875,0.66351318359375,0.4771728515625,-0.81103515625,0.4833984375,0.33935546875
690,1.0,-1.0,1.0,13.0,-4.0,-6.0,7.0,-6.0,-0.2357177734375,0.52471923828125,0.6640625,0.47760009765625,-0.80810546875,0.4921875,0.3369140625
691,0.0,-1.0,-3.0,8.0,-1.0,10.0,5.0,27.0,-0.23504638671875,0.52374267578125,0.6649169921875,0.477783203125,-0.8046875,0.48291015625,0.3486328125
692,-2.0,-3.0,-4.0,14.0,-3.0,-4.0,9.0,-2.0,-0.23406982421875,0.52264404296875,0.66583251953125,0.4781494140625,-0.80224609375,0.4716796875,0.361328125
693,-1.0,-4.0,3.0,-12.0,0.0,2.0,-4.0,1.0,-0.2327880859375,0.52178955078125,0.66680908203125,0.4783935546875,-0.7998046875,0.49267578125,0.35498046875
694,1.0,1.0,-1.0,15.0,-2.0,-1.0,-5.0,4.0,-0.23175048828125,0.52081298828125,0.66778564453125,0.47857666015625,-0.79736328125,0.48046875,0.36376953125
695,2.0,4.0,0.0,-9.0,10.0,0.0,19.0,6.0,-0.23089599609375,0.52001953125,0.66851806640625,0.478759765625,-0.8017578125,0.47802734375,0.3603515625
696,-6.0,-1.0,-2.0,-17.0,-2.0,12.0,12.0,-2.0,-0.2303466796875,0.51934814453125,0.66925048828125,0.47882080078125,-0.80615234375,0.4814453125,0.3671875
697,-3.0,-1.0,9.0,5.0,3.0,-10.0,-22.0,-13.0,-0.22967529296875,0.51898193359375,0.66973876953125,0.478759765625,-0.79443359375,0.48095703125,0.36865234375
698,3.0,-1.0,-1.0,42.0,10.0,5.0,2.0,0.0,-0.22918701171875,0.51873779296875,0.67010498046875,0.478759765625,-0.796875,0.48681640625,0.36865234375
699,-7.0,-3.0,-3.0,-39.0,-10.0,-5.0,7.0,-16.0,-0.22918701171875,0.51873779296875,0.670166015625,0.478759765625,-0.80859375,0.49365234375,0.373046875
700,1.0,2.0,-3.0,-21.0,0.0,-2.0,-9.0,3.0,-0.22918701171875,0.518798828125,0.67022705078125,0.47857666015625,-0.81201171875,0.490234375,0.37646484375
701,0.0,-2.0,-2.0,9.0,-5.0,-3.0,9.0,-8.0,-0.229248046875,0.518798828125,0.67022705078125,0.47845458984375,-0.8154296875,0.4931640625,0.376953125
702,-4.0,-1.0,0.0,3.0,6.0,14.0,-2.0,4.0,-0.229248046875,0.5189208984375,0.6702880859375,0.47833251953125,-0.81005859375,0.49658203125,0.37890625
703,1.0,-1.0,1.0,32.0,-11.0,-17.0,4.0,-3.0,-0.22918701171875,0.51898193359375,0.6702880859375,0.47821044921875,-0.81201171875,0.49365234375,0.373046875
704,0.0,-2.0,-7.0,-9.0,3.0,0.0,12.0,-8.0,-0.2291259765625,0.51898193359375,0.67034912109375,0.47821044921875,-0.8134765625,0.48974609375,0.3759765625
705,-1.0,-2.0,-4.0,-11.0,-1.0,-5.0,-22.0,8.0,-0.2288818359375,0.518798828125,0.67059326171875,0.478271484375,-0.81103515625,0.48974609375,0.37353515625
706,0.0,-1.0,4.0,-15.0,2.0,8.0,-4.0,-2.0,-0.228515625,0.5185546875,0.67083740234375,0.47833251953125,-0.8115234375,0.4892578125,0.37060546875
707,-2.0,-2.0,-6.0,0.0,0.0,0.0,8.0,3.0,-0.22808837890625,0.5185546875,0.67108154296875,0.47821044921875,-0.80224609375,0.4970703125,0.3623046875
708,0.0,0.0,9.0,45.0,5.0,-4.0,-11.0,4.0,-0.2279052734375,0.518310546875,0.67138671875,0.47802734375,-0.8056640625,0.48828125,0.3671875
709,2.0,1.0,-1.0,-21.0,-4.0,1.0,11.0,11.0,-0.22784423828125,0.518310546875,0.67144775390625,0.47802734375,-0.80322265625,0.4921875,0.3798828125
710,-3.0,-1.0,-1.0,4.0,0.0,-7.0,-16.0,-5.0,-0.2276611328125,0.5184326171875,0.6715087890625,0.47796630859375,-0.81689453125,0.49267578125,0.37255859375
711,-4.0,-2.0,3.0,27.0,-2.0,6.0,-22.0,-4.0,-0.22747802734375,0.5185546875,0.6715087890625,0.4779052734375,-0.80859375,0.4921875,0.37890625
712,2.0,0.0,-4.0,12.0,8.0,-7.0,16.0,-24.0,-0.227294921875,0.51873779296875,0.67156982421875,0.4776611328125,-0.80419921875,0.49951171875,0.37158203125
713,-6.0,1.0,4.0,-1.0,0.0,4.0,-4.0,5.0,-0.2274169921875,0.51885986328125,0.671630859375,0.4774169921875,-0.8134765625,0.49951171875,0.37109375
714,-1.0,-4.0,-10.0,3.0,-9.0,-9.0,-2.0,-17.0,-0.2276611328125,0.51885986328125,0.671630859375,0.47723388671875,-0.82666015625,0.49853515625,0.37890625
715,2.0,3.0,1.0,9.0,-3.0,-8.0,-1.0,-5.0,-0.22760009765625,0.518798828125,0.67169189453125,0.47723388671875,-0.82666015625,0.49462890625,0.38232421875
716,-1.0,-4.0,3.0,31.0,5.0,7.0,-8.0,5.0,-0.22784423828125,0.518798828125,0.67169189453125,0.47711181640625,-0.82470703125,0.50244140625,0.37060546875
717,0.0,-1.0,-2.0,-11.0,5.0,5.0,12.0,7.0,-0.22808837890625,0.51861572265625,0.67181396484375,0.47705078125,-0.82958984375,0.5,0.37451171875
718,4.0,5.0,7.0,-6.0,1.0,-9.0,7.0,-1.0,-0.22845458984375,0.51849365234375,0.671875,0.4769287109375,-0.8232421875,0.49951171875,0.36474609375
719,-4.0,-6.0,-7.0,-17.0,-4.0,-2.0,2.0,1.0,-0.2286376953125,0.51824951171875,0.67205810546875,0.47686767578125,-0.8212890625,0.4892578125,0.36962890625
720,-4.0,-4.0,-1.0,1.0,-7.0,9.0,-10.0,10.0,-0.228759765625,0.51788330078125,0.6722412109375,0.4769287109375,-0.81689453125,0.4873046875,0.37548828125
721,4.0,3.0,5.0,-13.0,5.0,3.0,24.0,-5.0,-0.228759765625,0.517578125,0.67236328125,0.47711181640625,-0.8046875,0.4892578125,0.3720703125
722,-4.0,-1.0,-2.0,-5.0,-9.0,-5.0,-19.0,16.0,-0.22894287109375,0.51727294921875,0.67242431640625,0.4771728515625,-0.8056640625,0.4921875,0.36669921875
723,3.0,-2.0,5.0,10.0,6.0,9.0,-4.0,-1.0,-0.22955322265625,0.516357421875,0.67291259765625,0.47723388671875,-0.80712890625,0.4931640625,0.3603515625
724,-2.0,-2.0,-3.0,-46.0,-12.0,-23.0,12.0,0.0,-0.23028564453125,0.51531982421875,0.67352294921875,0.47723388671875,-0.81396484375,0.474609375,0.37451171875
725,0.0,-2.0,-2.0,24.0,4.0,14.0,2.0,-2.0,-0.23065185546875,0.51470947265625,0.6737060546875,0.47735595703125,-0.8037109375,0.4765625,0.37451171875
726,-1.0,-5.0,0.0,3.0,-2.0,1.0,5.0,0.0,-0.230712890625,0.51458740234375,0.6737060546875,0.47747802734375,-0.7958984375,0.49658203125,0.365234375
727,-1.0,-3.0,2.0,25.0,-4.0,-5.0,7.0,0.0,-0.23114013671875,0.51434326171875,0.6737060546875,0.4775390625,-0.80517578125,0.49267578125,0.3759765625
728,-1.0,6.0,1.0,30.0,0.0,1.0,-27.0,-2.0,-0.23138427734375,0.5142822265625,0.673583984375,0.47760009765625,-0.8095703125,0.49072265625,0.3818359375
729,-2.0,-5.0,-6.0,-16.0,-5.0,-9.0,-8.0,2.0,-0.23150634765625,0.5142822265625,0.67340087890625,0.47784423828125,-0.8134765625,0.4892578125,0.38330078125
730,-2.0,-2.0,-5.0,-11.0,-2.0,-8.0,6.0,-4.0,-0.23150634765625,0.514404296875,0.67315673828125,0.4781494140625,-0.81884765625,0.4833984375,0.38330078125
731,-2.0,-4.0,-5.0,-17.0,-5.0,1.0,-6.0,0.0,-0.2314453125,0.5145263671875,0.67291259765625,0.47833251953125,-0.818359375,0.4853515625,0.38037109375
732,-3.0,-1.0,1.0,4.0,2.0,6.0,16.0,-19.0,-0.2314453125,0.51446533203125,0.67291259765625,0.4783935546875,-0.822265625,0.482421875,0.39013671875
733,2.0,0.0,0.0,12.0,-6.0,-9.0,2.0,4.0,-0.23162841796875,0.5145263671875,0.67291259765625,0.478271484375,-0.82177734375,0.4814453125,0.37744140625
734,2.0,3.0,2.0,-6.0,-2.0,5.0,-6.0,10.0,-0.23199462890625,0.51422119140625,0.67303466796875,0.47821044921875,-0.83251953125,0.47705078125,0.384765625
735,-1.0,-4.0,-7.0,8.0,14.0,-1.0,3.0,3.0,-0.23199462890625,0.51422119140625,0.67303466796875,0.47821044921875,-0.822265625,0.484375,0.3759765625
736,1.0,4.0,2.0,-16.0,-6.0,2.0,0.0,-4.0,-0.23193359375,0.51422119140625,0.67303466796875,0.47821044921875,-0.82470703125,0.4853515625,0.37646484375
737,-5.0,-3.0,-4.0,-12.0,-3.0,-5.0,-11.0,-13.0,-0.23193359375,0.51422119140625,0.67303466796875,0.47821044921875,-0.8212890625,0.48388671875,0.36962890625
738,-4.0,-5.0,-11.0,-49.0,6.0,-2.0,4.0,-7.0,-0.232177734375,0.51416015625,0.673095703125,0.47808837890625,-0.8115234375,0.48486328125,0.3671875
739,0.0,-2.0,2.0,-55.0,-12.0,-5.0,-1.0,-29.0,-0.232666015625,0.513916015625,0.6732177734375,0.47796630859375,-0.8154296875,0.4697265625,0.36669921875
740,-2.0,-1.0,3.0,-16.0,0.0,1.0,8.0,9.0,-0.23260498046875,0.51361083984375,0.67340087890625,0.47808837890625,-0.8154296875,0.4814453125,0.36767578125
741,0.0,-6.0,-8.0,18.0,7.0,6.0,-14.0,0.0,-0.23272705078125,0.513427734375,0.6734619140625,0.47808837890625,-0.81396484375,0.48095703125,0.369140625
742,-3.0,-3.0,-3.0,11.0,-8.0,2.0,6.0,8.0,-0.233154296875,0.51312255859375,0.673583984375,0.47802734375,-0.81005859375,0.48193359375,0.37060546875
743,-6.0,2.0,-2.0,5.0,6.0,7.0,-5.0,-11.0,-0.233642578125,0.51287841796875,0.67352294921875,0.4781494140625,-0.818359375,0.47509765625,0.373046875
744,1.0,-1.0,-3.0,-17.0,-6.0,-11.0,22.0,30.0,-0.23382568359375,0.51263427734375,0.6734619140625,0.47845458984375,-0.81640625,0.474609375,0.3798828125
745,-2.0,-1.0,-1.0,-26.0,-3.0,12.0,1.0,-13.0,-0.23382568359375,0.5125732421875,0.67333984375,0.4786376953125,-0.8056640625,0.486328125,0.3798828125
746,-2.0,-3.0,-2.0,8.0,0.0,-3.0,-11.0,-8.0,-0.23388671875,0.51239013671875,0.67333984375,0.47882080078125,-0.8154296875,0.4794921875,0.3828125
747,4.0,1.0,2.0,36.0,-5.0,4.0,1.0,5.0,-0.23388671875,0.51239013671875,0.67333984375,0.47882080078125,-0.81591796875,0.47314453125,0.3828125
748,-3.0,-2.0,-2.0,-17.0,-3.0,-3.0,-34.0,-11.0,-0.23388671875,0.5123291015625,0.67340087890625,0.47882080078125,-0.814453125,0.48095703125,0.38623046875
749,3.0,1.0,0.0,10.0,4.0,0.0,18.0,5.0,-0.23382568359375,0.51239013671875,0.67340087890625,0.47882080078125,-0.8154296875,0.48291015625,0.3701171875
750,0.0,-2.0,-4.0,14.0,-7.0,-15.0,-31.0,4.0,-0.23406982421875,0.51220703125,0.67352294921875,0.47869873046875,-0.82373046875,0.466796875,0.38720703125
751,-5.0,-4.0,-4.0,-9.0,-4.0,1.0,-1.0,-1.0,-0.234130859375,0.51220703125,0.673583984375,0.47857666015625,-0.822265625,0.47705078125,0.3818359375
752,3.0,1.0,0.0,-18.0,2.0,-2.0,1.0,12.0,-0.23431396484375,0.5123291015625,0.673583984375,0.47833251953125,-0.82470703125,0.478515625,0.369140625
753,-1.0,2.0,-3.0,-6.0,-5.0,-4.0,-6.0,-9.0,-0.23468017578125,0.51226806640625,0.673583984375,0.47821044921875,-0.82763671875,0.47509765625,0.38134765625
754,-2.0,-1.0,0.0,-9.0,0.0,-7.0,11.0,2.0,-0.23492431640625,0.51239013671875,0.6734619140625,0.4781494140625,-0.8203125,0.47509765625,0.36865234375
755,-2.0,-3.0,1.0,-12.0,2.0,-6.0,-2.0,2.0,-0.23504638671875,0.51263427734375,0.6732177734375,0.47821044921875,-0.82666015625,0.47900390625,0.37109375
756,0.0,-1.0,-4.0,-9.0,-4.0,3.0,-8.0,0.0,-0.23516845703125,0.5126953125,0.67303466796875,0.478271484375,-0.8173828125,0.46923828125,0.3837890625
757,-8.0,-1.0,3.0,-16.0,-2.0,-3.0,-6.0,-28.0,-0.235107421875,0.51300048828125,0.67279052734375,0.47833251953125,-0.81689453125,0.4736328125,0.37353515625
758,4.0,1.0,1.0,-13.0,-6.0,16.0,17.0,12.0,-0.23516845703125,0.51348876953125,0.6724853515625,0.4781494140625,-0.82275390625,0.462890625,0.36083984375
759,-4.0,2.0,5.0,14.0,7.0,-17.0,-3.0,6.0,-0.2353515625,0.5140380859375,0.6722412109375,0.4779052734375,-0.80810546875,0.47216796875,0.37255859375
760,-2.0,-6.0,-6.0,1.0,-8.0,-2.0,-1.0,-8.0,-0.2354736328125,0.5152587890625,0.67132568359375,0.47784423828125,-0.79150390625,0.5166015625,0.36328125
761,2.0,4.0,5.0,15.0,7.0,4.0,4.0,-5.0,-0.23675537109375,0.51568603515625,0.670654296875,0.47760009765625,-0.86962890625,0.53369140625,0.3642578125
762,1.0,-1.0,-5.0,-8.0,-6.0,-3.0,4.0,3.0,-0.2396240234375,0.51495361328125,0.67138671875,0.4759521484375,-0.841796875,0.40185546875,0.3828125
763,1.0,-1.0,1.0,-4.0,-1.0,0.0,1.0,-1.0,-0.23907470703125,0.5150146484375,0.67218017578125,0.47503662109375,-0.833984375,0.4326171875,0.38134765625
764,-3.0,-1.0,0.0,3.0,0.0,5.0,-1.0,-10.0,-0.236572265625,0.51531982421875,0.6724853515625,0.4755859375,-0.8203125,0.48828125,0.333984375
765,-1.0,-5.0,-6.0,-34.0,-19.0,-12.0,-1.0,5.0,-0.23541259765625,0.51531982421875,0.6729736328125,0.4754638671875,-0.77880859375,0.4951171875,0.3330078125
766,-4.0,-2.0,-3.0,-36.0,10.0,2.0,-8.0,-18.0,-0.23529052734375,0.51519775390625,0.67340087890625,0.47503662109375,-0.81591796875,0.48681640625,0.38525390625
767,2.0,-3.0,-6.0,33.0,-5.0,-3.0,8.0,2.0,-0.23504638671875,0.51531982421875,0.67364501953125,0.4747314453125,-0.82763671875,0.48779296875,0.359375
768,-4.0,-3.0,1.0,10.0,9.0,-1.0,-2.0,-3.0,-0.2349853515625,0.5150146484375,0.674072265625,0.47442626953125,-0.802734375,0.47607421875,0.37939453125
769,-1.0,-2.0,1.0,2.0,-11.0,0.0,0.0,24.0,-0.23492431640625,0.51544189453125,0.6737060546875,0.47454833984375,-0.81103515625,0.4873046875,0.38623046875
770,-2.0,1.0,3.0,26.0,9.0,-6.0,-6.0,-7.0,-0.23486328125,0.51611328125,0.6729736328125,0.474853515625,-0.8291015625,0.50390625,0.36962890625
771,0.0,-2.0,-10.0,-12.0,-8.0,0.0,-9.0,-2.0,-0.23541259765625,0.51641845703125,0.67254638671875,0.47491455078125,-0.83154296875,0.4873046875,0.37158203125
772,2.0,1.0,3.0,20.0,17.0,2.0,3.0,-20.0,-0.23626708984375,0.51654052734375,0.6722412109375,0.4747314453125,-0.85400390625,0.48046875,0.36962890625
773,0.0,1.0,6.0,8.0,1.0,-6.0,-14.0,-5.0,-0.23651123046875,0.5164794921875,0.67218017578125,0.4747314453125,-0.8427734375,0.474609375,0.37255859375
774,4.0,1.0,-2.0,36.0,-2.0,6.0,8.0,3.0,-0.23651123046875,0.51654052734375,0.67218017578125,0.4747314453125,-0.82080078125,0.49658203125,0.36767578125
775,-2.0,0.0,-2.0,-26.0,-1.0,11.0,-9.0,-2.0,-0.2366943359375,0.516357421875,0.67242431640625,0.47454833984375,-0.8212890625,0.4912109375,0.37109375
776,-1.0,-2.0,2.0,25.0,-3.0,-4.0,-7.0,2.0,-0.2369384765625,0.51617431640625,0.67236328125,0.474609375,-0.83203125,0.47314453125,0.35498046875
777,0.0,2.0,2.0,-23.0,-2.0,7.0,-2.0,2.0,-0.23699951171875,0.51593017578125,0.67242431640625,0.474853515625,-0.82568359375,0.46875,0.35693359375
778,-2.0,-1.0,2.0,-5.0,5.0,-12.0,-3.0,-6.0,-0.23681640625,0.51568603515625,0.67236328125,0.4752197265625,-0.81787109375,0.47705078125,0.35791015625
779,-3.0,-2.0,-3.0,0.0,-7.0,1.0,4.0,5.0,-0.2369384765625,0.51513671875,0.67242431640625,0.47564697265625,-0.8173828125,0.47314453125,0.34912109375
780,-1.0,-4.0,-1.0,14.0,-2.0,0.0,0.0,-7.0,-0.236572265625,0.514404296875,0.672607421875,0.47637939453125,-0.81591796875,0.4609375,0.37744140625
781,-5.0,-2.0,-1.0,-34.0,-7.0,-11.0,5.0,1.0,-0.23553466796875,0.51507568359375,0.67230224609375,0.4765625,-0.80126953125,0.49609375,0.330078125
782,3.0,2.0,2.0,-4.0,6.0,3.0,1.0,6.0,-0.23516845703125,0.515380859375,0.6719970703125,0.47686767578125,-0.84228515625,0.4677734375,0.3701171875
783,-1.0,0.0,7.0,12.0,-5.0,-2.0,1.0,5.0,-0.2349853515625,0.51580810546875,0.671630859375,0.47698974609375,-0.8388671875,0.4462890625,0.37060546875
784,-3.0,-4.0,-6.0,-22.0,-10.0,-5.0,-7.0,3.0,-0.2342529296875,0.516357421875,0.67138671875,0.47705078125,-0.81884765625,0.4775390625,0.35498046875
785,-2.0,-1.0,-3.0,19.0,4.0,-6.0,-8.0,0.0,-0.233642578125,0.5162353515625,0.67156982421875,0.477294921875,-0.81396484375,0.4775390625,0.35400390625
786,-1.0,-3.0,-1.0,0.0,-7.0,3.0,-9.0,-7.0,-0.23309326171875,0.51641845703125,0.67156982421875,0.4774169921875,-0.7958984375,0.48583984375,0.3583984375
787,3.0,5.0,0.0,-18.0,4.0,-1.0,2.0,0.0,-0.2327880859375,0.51678466796875,0.67120361328125,0.47760009765625,-0.81982421875,0.4892578125,0.36181640625
788,-2.0,-1.0,-6.0,9.0,-4.0,-5.0,-3.0,5.0,-0.232421875,0.51708984375,0.67108154296875,0.4776611328125,-0.83251953125,0.49609375,0.369140625
789,-2.0,-4.0,-3.0,11.0,-8.0,-4.0,-3.0,-8.0,-0.2320556640625,0.5174560546875,0.6708984375,0.4776611328125,-0.8232421875,0.50146484375,0.37646484375
790,-5.0,-5.0,-2.0,30.0,17.0,-2.0,1.0,-5.0,-0.23223876953125,0.517578125,0.6705322265625,0.47796630859375,-0.8330078125,0.49609375,0.3837890625
791,-1.0,-3.0,-3.0,-9.0,-8.0,-1.0,8.0,-6.0,-0.2325439453125,0.51776123046875,0.67010498046875,0.478271484375,-0.83740234375,0.490234375,0.37890625
792,0.0,2.0,3.0,28.0,-10.0,-7.0,-18.0,-4.0,-0.23291015625,0.51739501953125,0.66998291015625,0.47857666015625,-0.8388671875,0.47412109375,0.38330078125
793,-1.0,-4.0,-10.0,-37.0,9.0,1.0,2.0,30.0,-0.2330322265625,0.5172119140625,0.66998291015625,0.478759765625,-0.818359375,0.48828125,0.3779296875
794,1.0,0.0,3.0,-11.0,-10.0,-3.0,0.0,10.0,-0.2332763671875,0.51690673828125,0.66998291015625,0.47906494140625,-0.81640625,0.4794921875,0.38134765625
795,-2.0,-2.0,3.0,12.0,-3.0,-4.0,-7.0,-9.0,-0.23345947265625,0.5167236328125,0.66986083984375,0.479248046875,-0.8076171875,0.4833984375,0.36572265625
796,-1.0,0.0,3.0,4.0,3.0,-3.0,18.0,4.0,-0.23382568359375,0.51654052734375,0.6697998046875,0.4793701171875,-0.8134765625,0.47412109375,0.369140625
797,0.0,-3.0,-5.0,-6.0,-2.0,18.0,8.0,-2.0,-0.23419189453125,0.516357421875,0.6697998046875,0.4793701171875,-0.82080078125,0.46728515625,0.3642578125
798,-8.0,-3.0,0.0,6.0,-3.0,-8.0,-8.0,-6.0,-0.23431396484375,0.51617431640625,0.669921875,0.4793701171875,-0.8271484375,0.4658203125,0.37158203125
799,1.0,-1.0,0.0,5.0,8.0,3.0,-1.0,4.0,-0.23431396484375,0.51617431640625,0.669921875,0.47930908203125,-0.81494140625,0.48193359375,0.353515625
800,2.0,1.0,-6.0,6.0,-9.0,1.0,3.0,0.0,-0.23468017578125,0.516357421875,0.6697998046875,0.47918701171875,-0.8251953125,0.474609375,0.3515625
801,-3.0,-3.0,1.0,23.0,-4.0,-14.0,-3.0,-15.0,-0.2347412109375,0.51629638671875,0.66973876953125,0.47918701171875,-0.8359375,0.458984375,0.3662109375
802,1.0,-1.0,-5.0,-54.0,-6.0,1.0,-3.0,11.0,-0.2347412109375,0.516357421875,0.66973876953125,0.47918701171875,-0.8125,0.46728515625,0.3486328125
803,-1.0,-1.0,-1.0,27.0,8.0,-2.0,1.0,8.0,-0.2347412109375,0.51617431640625,0.66998291015625,0.47906494140625,-0.82275390625,0.4638671875,0.36181640625
804,-1.0,-3.0,2.0,-16.0,-6.0,-1.0,-5.0,-16.0,-0.2344970703125,0.51617431640625,0.67010498046875,0.47894287109375,-0.822265625,0.4658203125,0.359375
805,-2.0,-1.0,-3.0,17.0,0.0,-3.0,2.0,-9.0,-0.23455810546875,0.51611328125,0.67022705078125,0.47882080078125,-0.81689453125,0.46875,0.35546875
806,0.0,-3.0,0.0,17.0,-6.0,1.0,1.0,-3.0,-0.235107421875,0.516357421875,0.670166015625,0.4783935546875,-0.794921875,0.49560546875,0.357421875
807,-2.0,1.0,7.0,12.0,5.0,-8.0,-16.0,-3.0,-0.236572265625,0.51654052734375,0.6695556640625,0.47833251953125,-0.83154296875,0.4833984375,0.36474609375
808,0.0,-2.0,-11.0,-40.0,-8.0,-2.0,-7.0,7.0,-0.238037109375,0.51666259765625,0.6689453125,0.47833251953125,-0.87109375,0.50927734375,0.3662109375
809,-1.0,1.0,-1.0,5.0,5.0,2.0,0.0,-4.0,-0.24072265625,0.516845703125,0.66900634765625,0.4766845703125,-0.8154296875,0.44140625,0.36279296875
810,-2.0,-2.0,-3.0,-18.0,-5.0,-3.0,10.0,-3.0,-0.24273681640625,0.51708984375,0.66949462890625,0.4747314453125,-0.85595703125,0.3984375,0.37451171875
811,0.0,-1.0,-3.0,7.0,1.0,11.0,4.0,2.0,-0.24139404296875,0.51739501953125,0.6700439453125,0.47430419921875,-0.849609375,0.47900390625,0.33154296875
812,0.0,-4.0,0.0,-18.0,0.0,-10.0,-6.0,-11.0,-0.240234375,0.51702880859375,0.67138671875,0.47344970703125,-0.78076171875,0.48486328125,0.32421875
813,-1.0,-1.0,6.0,4.0,-1.0,-4.0,-10.0,5.0,-0.2392578125,0.51690673828125,0.67205810546875,0.47308349609375,-0.79296875,0.50048828125,0.37744140625
814,-1.0,-1.0,-9.0,-56.0,-12.0,1.0,8.0,3.0,-0.238525390625,0.51715087890625,0.671875,0.47344970703125,-0.8251953125,0.4892578125,0.34912109375
815,-3.0,-4.0,2.0,19.0,-2.0,-3.0,3.0,-14.0,-0.23822021484375,0.51702880859375,0.67156982421875,0.47418212890625,-0.83056640625,0.455078125,0.37353515625
816,2.0,1.0,4.0,19.0,9.0,3.0,4.0,9.0,-0.2376708984375,0.517578125,0.6707763671875,0.4749755859375,-0.8359375,0.48681640625,0.36572265625
817,0.0,0.0,-2.0,18.0,2.0,8.0,10.0,7.0,-0.23724365234375,0.51812744140625,0.67034912109375,0.4752197265625,-0.8291015625,0.49853515625,0.36962890625
