time,emg_1,emg_2,emg_3,emg_4,emg_5,emg_6,emg_7,emg_8,ori_1,ori_2,ori_3,ori_4,acc_1,acc_2,acc_3
1536453663.7639363,-2.0,-2.0,-2.0,-2.0,-2.0,-2.0,-2.0,-2.0,0.2081298828125,0.2081298828125,0.2081298828125,0.2081298828125,-0.984375,-0.984375,-0.984375
1536453663.8318985,0.0,0.0,0.0,0.0,0.0,0.0,0.0,0.0,0.63214111328125,0.63214111328125,0.63214111328125,0.63214111328125,0.18212890625,0.18212890625,0.18212890625
1536453663.882933,-1.0,-1.0,-1.0,-1.0,-1.0,-1.0,-1.0,-1.0,-0.10211181640625,-0.10211181640625,-0.10211181640625,-0.10211181640625,0.10498046875,0.10498046875,0.10498046875
1536453663.942887,-1.0,-1.0,-1.0,-1.0,-1.0,-1.0,-1.0,-1.0,0.73931884765625,0.73931884765625,0.73931884765625,0.73931884765625,-0.98876953125,-0.98876953125,-0.98876953125
1536453664.002854,-2.0,-2.0,-2.0,-2.0,-2.0,-2.0,-2.0,-2.0,0.2081298828125,0.2081298828125,0.2081298828125,0.2081298828125,0.17919921875,0.17919921875,0.17919921875
1536453664.062802,-1.0,-1.0,-1.0,-1.0,-1.0,-1.0,-1.0,-1.0,0.63214111328125,0.63214111328125,0.63214111328125,0.63214111328125,0.10888671875,0.10888671875,0.10888671875
1536453664.1227856,-2.0,-2.0,-2.0,-2.0,-2.0,-2.0,-2.0,-2.0,-0.10211181640625,-0.10211181640625,-0.10211181640625,-0.10211181640625,-0.97900390625,-0.97900390625,-0.97900390625
1536453664.1827505,0.0,0.0,0.0,0.0,0.0,0.0,0.0,0.0,0.7392578125,0.7392578125,0.7392578125,0.7392578125,0.18408203125,0.18408203125,0.18408203125
1536453664.2427347,-2.0,-2.0,-2.0,-2.0,-2.0,-2.0,-2.0,-2.0,0.2081298828125,0.2081298828125,0.2081298828125,0.2081298828125,0.10986328125,0.10986328125,0.10986328125
1536453664.3116775,0.0,0.0,0.0,0.0,0.0,0.0,0.0,0.0,0.6322021484375,0.6322021484375,0.6322021484375,0.6322021484375,-0.9833984375,-0.9833984375,-0.9833984375
1536453664.3716428,-3.0,-3.0,-3.0,-3.0,-3.0,-3.0,-3.0,-3.0,-0.10211181640625,-0.10211181640625,-0.10211181640625,-0.10211181640625,0.181640625,0.181640625,0.181640625
1536453664.4316094,-2.0,-2.0,-2.0,-2.0,-2.0,-2.0,-2.0,-2.0,0.7392578125,0.7392578125,0.7392578125,0.7392578125,0.111328125,0.111328125,0.111328125
1536453664.4915743,0.0,0.0,0.0,0.0,0.0,0.0,0.0,0.0,0.2081298828125,0.2081298828125,0.2081298828125,0.2081298828125,-0.98876953125,-0.98876953125,-0.98876953125
1536453664.5515404,-2.0,-2.0,-2.0,-2.0,-2.0,-2.0,-2.0,-2.0,0.6322021484375,0.6322021484375,0.6322021484375,0.6322021484375,0.18017578125,0.18017578125,0.18017578125
1536453664.6115067,0.0,0.0,0.0,0.0,0.0,0.0,0.0,0.0,-0.10211181640625,-0.10211181640625,-0.10211181640625,-0.10211181640625,0.111328125,0.111328125,0.111328125
1536453664.6714718,-3.0,-3.0,-3.0,-3.0,-3.0,-3.0,-3.0,-3.0,0.7392578125,0.7392578125,0.7392578125,0.7392578125,-0.98828125,-0.98828125,-0.98828125
1536453664.7324028,0.0,0.0,0.0,0.0,0.0,0.0,0.0,0.0,0.2081298828125,0.2081298828125,0.2081298828125,0.2081298828125,0.18408203125,0.18408203125,0.18408203125
1536453664.7923677,-1.0,-1.0,-1.0,-1.0,-1.0,-1.0,-1.0,-1.0,0.6322021484375,0.6322021484375,0.6322021484375,0.6322021484375,0.1083984375,0.1083984375,0.1083984375
1536453664.8523338,-1.0,-1.0,-1.0,-1.0,-1.0,-1.0,-1.0,-1.0,-0.10211181640625,-0.10211181640625,-0.10211181640625,-0.10211181640625,-0.98388671875,-0.98388671875,-0.98388671875
1536453664.9122996,0.0,0.0,0.0,0.0,0.0,0.0,0.0,0.0,0.73919677734375,0.73919677734375,0.73919677734375,0.73919677734375,0.18359375,0.18359375,0.18359375
1536453664.9722466,0.0,0.0,0.0,0.0,0.0,0.0,0.0,0.0,0.20819091796875,0.20819091796875,0.20819091796875,0.20819091796875,0.1162109375,0.1162109375,0.1162109375
1536453665.0322118,-2.0,-2.0,-2.0,-2.0,-2.0,-2.0,-2.0,-2.0,0.63226318359375,0.63226318359375,0.63226318359375,0.63226318359375,-0.984375,-0.984375,-0.984375
1536453665.0911784,-1.0,-1.0,-1.0,-1.0,-1.0,-1.0,-1.0,-1.0,-0.10211181640625,-0.10211181640625,-0.10211181640625,-0.10211181640625,0.181640625,0.181640625,0.181640625
1536453665.1521425,0.0,0.0,0.0,0.0,0.0,0.0,0.0,0.0,0.73919677734375,0.73919677734375,0.73919677734375,0.73919677734375,0.10986328125,0.10986328125,0.10986328125
1536453665.2121081,-1.0,-1.0,-1.0,-1.0,-1.0,-1.0,-1.0,-1.0,0.20819091796875,0.20819091796875,0.20819091796875,0.20819091796875,-0.98046875,-0.98046875,-0.98046875
1536453665.2720754,0.0,0.0,0.0,0.0,0.0,0.0,0.0,0.0,0.63226318359375,0.63226318359375,0.63226318359375,0.63226318359375,0.18212890625,0.18212890625,0.18212890625
1536453665.3310425,0.0,0.0,0.0,0.0,0.0,0.0,0.0,0.0,-0.10205078125,-0.10205078125,-0.10205078125,-0.10205078125,0.11474609375,0.11474609375,0.11474609375
1536453665.3920057,0.0,0.0,0.0,0.0,0.0,0.0,0.0,0.0,0.73919677734375,0.73919677734375,0.73919677734375,0.73919677734375,-0.99267578125,-0.99267578125,-0.99267578125
1536453665.4519708,-1.0,-1.0,-1.0,-1.0,-1.0,-1.0,-1.0,-1.0,0.20819091796875,0.20819091796875,0.20819091796875,0.20819091796875,0.1826171875,0.1826171875,0.1826171875
1536453665.5119364,0.0,0.0,0.0,0.0,0.0,0.0,0.0,0.0,0.63226318359375,0.63226318359375,0.63226318359375,0.63226318359375,0.10888671875,0.10888671875,0.10888671875
1536453665.571948,-2.0,-2.0,-2.0,-2.0,-2.0,-2.0,-2.0,-2.0,-0.10205078125,-0.10205078125,-0.10205078125,-0.10205078125,-0.986328125,-0.986328125,-0.986328125
1536453665.6319108,-1.0,-1.0,-1.0,-1.0,-1.0,-1.0,-1.0,-1.0,0.7391357421875,0.7391357421875,0.7391357421875,0.7391357421875,0.18115234375,0.18115234375,0.18115234375
1536453665.6919663,1.0,1.0,1.0,1.0,1.0,1.0,1.0,1.0,0.208251953125,0.208251953125,0.208251953125,0.208251953125,0.10546875,0.10546875,0.10546875
1536453665.7519317,-1.0,-1.0,-1.0,-1.0,-1.0,-1.0,-1.0,-1.0,0.63226318359375,0.63226318359375,0.63226318359375,0.63226318359375,-0.98291015625,-0.98291015625,-0.98291015625
1536453665.8119886,-3.0,-3.0,-3.0,-3.0,-3.0,-3.0,-3.0,-3.0,-0.10198974609375,-0.10198974609375,-0.10198974609375,-0.10198974609375,0.1875,0.1875,0.1875
1536453665.8719542,-1.0,-1.0,-1.0,-1.0,-1.0,-1.0,-1.0,-1.0,0.73919677734375,0.73919677734375,0.73919677734375,0.73919677734375,0.11279296875,0.11279296875,0.11279296875
1536453665.9319203,-1.0,-1.0,-1.0,-1.0,-1.0,-1.0,-1.0,-1.0,0.208251953125,0.208251953125,0.208251953125,0.208251953125,-0.98828125,-0.98828125,-0.98828125
1536453665.9918842,-1.0,-1.0,-1.0,-1.0,-1.0,-1.0,-1.0,-1.0,0.63226318359375,0.63226318359375,0.63226318359375,0.63226318359375,0.17919921875,0.17919921875,0.17919921875
1536453666.0519412,0.0,0.0,0.0,0.0,0.0,0.0,0.0,0.0,-0.10198974609375,-0.10198974609375,-0.10198974609375,-0.10198974609375,0.1123046875,0.1123046875,0.1123046875
1536453666.1119099,0.0,0.0,0.0,0.0,0.0,0.0,0.0,0.0,0.73919677734375,0.73919677734375,0.73919677734375,0.73919677734375,-0.98583984375,-0.98583984375,-0.98583984375
1536453666.1718726,-3.0,-3.0,-3.0,-3.0,-3.0,-3.0,-3.0,-3.0,0.208251953125,0.208251953125,0.208251953125,0.208251953125,0.18359375,0.18359375,0.18359375
1536453666.2318375,-1.0,-1.0,-1.0,-1.0,-1.0,-1.0,-1.0,-1.0,0.63232421875,0.63232421875,0.63232421875,0.63232421875,0.115234375,0.115234375,0.115234375
1536453666.2928033,0.0,0.0,0.0,0.0,0.0,0.0,0.0,0.0,-0.10198974609375,-0.10198974609375,-0.10198974609375,-0.10198974609375,-0.98681640625,-0.98681640625,-0.98681640625
1536453666.3517687,-1.0,-1.0,-1.0,-1.0,-1.0,-1.0,-1.0,-1.0,0.7391357421875,0.7391357421875,0.7391357421875,0.7391357421875,0.18896484375,0.18896484375,0.18896484375
1536453666.4107375,0.0,0.0,0.0,0.0,0.0,0.0,0.0,0.0,0.20843505859375,0.20843505859375,0.20843505859375,0.20843505859375,0.109375,0.109375,0.109375
1536453666.4707553,0.0,0.0,0.0,0.0,0.0,0.0,0.0,0.0,0.63201904296875,0.63201904296875,0.63201904296875,0.63201904296875,-0.98828125,-0.98828125,-0.98828125
1536453666.5316856,-2.0,-2.0,-2.0,-2.0,-2.0,-2.0,-2.0,-2.0,-0.10223388671875,-0.10223388671875,-0.10223388671875,-0.10223388671875,0.185546875,0.185546875,0.185546875
1536453666.591652,-2.0,-2.0,-2.0,-2.0,-2.0,-2.0,-2.0,-2.0,0.73931884765625,0.73931884765625,0.73931884765625,0.73931884765625,0.11767578125,0.11767578125,0.11767578125
1536453666.651617,-4.0,-4.0,-4.0,-4.0,-4.0,-4.0,-4.0,-4.0,0.20831298828125,0.20831298828125,0.20831298828125,0.20831298828125,-0.98193359375,-0.98193359375,-0.98193359375
1536453666.710564,-4.0,-4.0,-4.0,-4.0,-4.0,-4.0,-4.0,-4.0,0.6319580078125,0.6319580078125,0.6319580078125,0.6319580078125,0.18017578125,0.18017578125,0.18017578125
1536453666.7705295,-4.0,-4.0,-4.0,-4.0,-4.0,-4.0,-4.0,-4.0,-0.102294921875,-0.102294921875,-0.102294921875,-0.102294921875,0.1171875,0.1171875,0.1171875
1536453666.830495,0.0,0.0,0.0,0.0,0.0,0.0,0.0,0.0,0.7393798828125,0.7393798828125,0.7393798828125,0.7393798828125,-0.9853515625,-0.9853515625,-0.9853515625
1536453666.8904827,-1.0,-1.0,-1.0,-1.0,-1.0,-1.0,-1.0,-1.0,0.20831298828125,0.20831298828125,0.20831298828125,0.20831298828125,0.185546875,0.185546875,0.185546875
1536453666.950427,-1.0,-1.0,-1.0,-1.0,-1.0,-1.0,-1.0,-1.0,0.6319580078125,0.6319580078125,0.6319580078125,0.6319580078125,0.1064453125,0.1064453125,0.1064453125
1536453667.0104642,-2.0,-2.0,-2.0,-2.0,-2.0,-2.0,-2.0,-2.0,-0.102294921875,-0.102294921875,-0.102294921875,-0.102294921875,-0.98486328125,-0.98486328125,-0.98486328125
1536453667.0704172,-2.0,-2.0,-2.0,-2.0,-2.0,-2.0,-2.0,-2.0,0.73944091796875,0.73944091796875,0.73944091796875,0.73944091796875,0.18017578125,0.18017578125,0.18017578125
1536453667.123329,-3.0,-3.0,-3.0,-3.0,-3.0,-3.0,-3.0,-3.0,0.20831298828125,0.20831298828125,0.20831298828125,0.20831298828125,0.11279296875,0.11279296875,0.11279296875
1536453667.176298,-2.0,-2.0,-2.0,-2.0,-2.0,-2.0,-2.0,-2.0,0.6319580078125,0.6319580078125,0.6319580078125,0.6319580078125,-0.98583984375,-0.98583984375,-0.98583984375
1536453667.2362645,-2.0,-2.0,-2.0,-2.0,-2.0,-2.0,-2.0,-2.0,-0.10223388671875,-0.10223388671875,-0.10223388671875,-0.10223388671875,0.1845703125,0.1845703125,0.1845703125
1536453667.2962298,-2.0,-2.0,-2.0,-2.0,-2.0,-2.0,-2.0,-2.0,0.7393798828125,0.7393798828125,0.7393798828125,0.7393798828125,0.11328125,0.11328125,0.11328125
1536453667.3561947,-2.0,-2.0,-2.0,-2.0,-2.0,-2.0,-2.0,-2.0,0.2083740234375,0.2083740234375,0.2083740234375,0.2083740234375,-0.986328125,-0.986328125,-0.986328125
1536453667.4161606,-3.0,-3.0,-3.0,-3.0,-3.0,-3.0,-3.0,-3.0,0.6319580078125,0.6319580078125,0.6319580078125,0.6319580078125,0.18603515625,0.18603515625,0.18603515625
1536453667.4761262,-1.0,-1.0,-1.0,-1.0,-1.0,-1.0,-1.0,-1.0,-0.10223388671875,-0.10223388671875,-0.10223388671875,-0.10223388671875,0.11572265625,0.11572265625,0.11572265625
1536453667.536092,0.0,0.0,0.0,0.0,0.0,0.0,0.0,0.0,0.7393798828125,0.7393798828125,0.7393798828125,0.7393798828125,-0.982421875,-0.982421875,-0.982421875
1536453667.5960572,-1.0,-1.0,-1.0,-1.0,-1.0,-1.0,-1.0,-1.0,0.2083740234375,0.2083740234375,0.2083740234375,0.2083740234375,0.1865234375,0.1865234375,0.1865234375
1536453667.6560616,-2.0,-2.0,-2.0,-2.0,-2.0,-2.0,-2.0,-2.0,0.6319580078125,0.6319580078125,0.6319580078125,0.6319580078125,0.1123046875,0.1123046875,0.1123046875
1536453667.7160418,-2.0,-2.0,-2.0,-2.0,-2.0,-2.0,-2.0,-2.0,-0.10223388671875,-0.10223388671875,-0.10223388671875,-0.10223388671875,-0.98291015625,-0.98291015625,-0.98291015625
1536453667.776028,0.0,0.0,0.0,0.0,0.0,0.0,0.0,0.0,0.7393798828125,0.7393798828125,0.7393798828125,0.7393798828125,0.1787109375,0.1787109375,0.1787109375
1536453667.835973,-2.0,-2.0,-2.0,-2.0,-2.0,-2.0,-2.0,-2.0,0.2083740234375,0.2083740234375,0.2083740234375,0.2083740234375,0.10888671875,0.10888671875,0.10888671875
1536453667.8959422,-1.0,-1.0,-1.0,-1.0,-1.0,-1.0,-1.0,-1.0,0.6319580078125,0.6319580078125,0.6319580078125,0.6319580078125,-0.9853515625,-0.9853515625,-0.9853515625
1536453667.9558716,-2.0,-2.0,-2.0,-2.0,-2.0,-2.0,-2.0,-2.0,-0.1021728515625,-0.1021728515625,-0.1021728515625,-0.1021728515625,0.17822265625,0.17822265625,0.17822265625
1536453668.0158353,0.0,0.0,0.0,0.0,0.0,0.0,0.0,0.0,0.7393798828125,0.7393798828125,0.7393798828125,0.7393798828125,0.1142578125,0.1142578125,0.1142578125
1536453668.0758393,0.0,0.0,0.0,0.0,0.0,0.0,0.0,0.0,0.20843505859375,0.20843505859375,0.20843505859375,0.20843505859375,-0.98046875,-0.98046875,-0.98046875
1536453668.135804,0.0,0.0,0.0,0.0,0.0,0.0,0.0,0.0,0.6319580078125,0.6319580078125,0.6319580078125,0.6319580078125,0.1904296875,0.1904296875,0.1904296875
1536453668.1957161,-2.0,-2.0,-2.0,-2.0,-2.0,-2.0,-2.0,-2.0,-0.1021728515625,-0.1021728515625,-0.1021728515625,-0.1021728515625,0.111328125,0.111328125,0.111328125
1536453668.2556806,-1.0,-1.0,-1.0,-1.0,-1.0,-1.0,-1.0,-1.0,0.7393798828125,0.7393798828125,0.7393798828125,0.7393798828125,-0.98486328125,-0.98486328125,-0.98486328125
1536453668.3156457,-1.0,-1.0,-1.0,-1.0,-1.0,-1.0,-1.0,-1.0,0.20843505859375,0.20843505859375,0.20843505859375,0.20843505859375,0.18798828125,0.18798828125,0.18798828125
1536453668.3766313,-2.0,-2.0,-2.0,-2.0,-2.0,-2.0,-2.0,-2.0,0.6319580078125,0.6319580078125,0.6319580078125,0.6319580078125,0.11328125,0.11328125,0.11328125
1536453668.4365976,1.0,1.0,1.0,1.0,1.0,1.0,1.0,1.0,-0.1021728515625,-0.1021728515625,-0.1021728515625,-0.1021728515625,-0.98583984375,-0.98583984375,-0.98583984375
1536453668.496563,-2.0,-2.0,-2.0,-2.0,-2.0,-2.0,-2.0,-2.0,0.73931884765625,0.73931884765625,0.73931884765625,0.73931884765625,0.1826171875,0.1826171875,0.1826171875
1536453668.5565097,-2.0,-2.0,-2.0,-2.0,-2.0,-2.0,-2.0,-2.0,0.20849609375,0.20849609375,0.20849609375,0.20849609375,0.111328125,0.111328125,0.111328125
1536453668.6164749,-3.0,-3.0,-3.0,-3.0,-3.0,-3.0,-3.0,-3.0,0.6319580078125,0.6319580078125,0.6319580078125,0.6319580078125,-0.98046875,-0.98046875,-0.98046875
1536453668.6684985,-2.0,-2.0,-2.0,-2.0,-2.0,-2.0,-2.0,-2.0,-0.10211181640625,-0.10211181640625,-0.10211181640625,-0.10211181640625,0.18798828125,0.18798828125,0.18798828125
1536453668.7214684,-1.0,-1.0,-1.0,-1.0,-1.0,-1.0,-1.0,-1.0,0.73931884765625,0.73931884765625,0.73931884765625,0.73931884765625,0.11474609375,0.11474609375,0.11474609375
1536453668.781434,0.0,0.0,0.0,0.0,0.0,0.0,0.0,0.0,0.20849609375,0.20849609375,0.20849609375,0.20849609375,-0.9833984375,-0.9833984375,-0.9833984375
1536453668.8414001,-2.0,-2.0,-2.0,-2.0,-2.0,-2.0,-2.0,-2.0,0.6319580078125,0.6319580078125,0.6319580078125,0.6319580078125,0.185546875,0.185546875,0.185546875
1536453668.9023314,-3.0,-3.0,-3.0,-3.0,-3.0,-3.0,-3.0,-3.0,-0.10211181640625,-0.10211181640625,-0.10211181640625,-0.10211181640625,0.111328125,0.111328125,0.111328125
1536453668.9622965,-2.0,-2.0,-2.0,-2.0,-2.0,-2.0,-2.0,-2.0,0.73931884765625,0.73931884765625,0.73931884765625,0.73931884765625,-0.986328125,-0.986328125,-0.986328125
1536453669.022243,-1.0,-1.0,-1.0,-1.0,-1.0,-1.0,-1.0,-1.0,0.20855712890625,0.20855712890625,0.20855712890625,0.20855712890625,0.18505859375,0.18505859375,0.18505859375
1536453669.0822277,-1.0,-1.0,-1.0,-1.0,-1.0,-1.0,-1.0,-1.0,0.63201904296875,0.63201904296875,0.63201904296875,0.63201904296875,0.12060546875,0.12060546875,0.12060546875
1536453669.1421742,-1.0,-1.0,-1.0,-1.0,-1.0,-1.0,-1.0,-1.0,-0.10205078125,-0.10205078125,-0.10205078125,-0.10205078125,-0.97900390625,-0.97900390625,-0.97900390625
1536453669.2011414,-2.0,-2.0,-2.0,-2.0,-2.0,-2.0,-2.0,-2.0,0.73931884765625,0.73931884765625,0.73931884765625,0.73931884765625,0.185546875,0.185546875,0.185546875
1536453669.261105,-1.0,-1.0,-1.0,-1.0,-1.0,-1.0,-1.0,-1.0,0.20855712890625,0.20855712890625,0.20855712890625,0.20855712890625,0.11572265625,0.11572265625,0.11572265625
1536453669.3220708,-1.0,-1.0,-1.0,-1.0,-1.0,-1.0,-1.0,-1.0,0.63201904296875,0.63201904296875,0.63201904296875,0.63201904296875,-0.9833984375,-0.9833984375,-0.9833984375
1536453669.3820388,-1.0,-1.0,-1.0,-1.0,-1.0,-1.0,-1.0,-1.0,-0.10205078125,-0.10205078125,-0.10205078125,-0.10205078125,0.18017578125,0.18017578125,0.18017578125
1536453669.4420035,-1.0,-1.0,-1.0,-1.0,-1.0,-1.0,-1.0,-1.0,0.7392578125,0.7392578125,0.7392578125,0.7392578125,0.10595703125,0.10595703125,0.10595703125
1536453669.5019703,0.0,0.0,0.0,0.0,0.0,0.0,0.0,0.0,0.20855712890625,0.20855712890625,0.20855712890625,0.20855712890625,-0.98583984375,-0.98583984375,-0.98583984375
1536453669.5619364,0.0,0.0,0.0,0.0,0.0,0.0,0.0,0.0,0.63201904296875,0.63201904296875,0.63201904296875,0.63201904296875,0.1806640625,0.1806640625,0.1806640625
1536453669.621992,0.0,0.0,0.0,0.0,0.0,0.0,0.0,0.0,-0.10205078125,-0.10205078125,-0.10205078125,-0.10205078125,0.10986328125,0.10986328125,0.10986328125
1536453669.6819549,0.0,0.0,0.0,0.0,0.0,0.0,0.0,0.0,0.7392578125,0.7392578125,0.7392578125,0.7392578125,-0.98779296875,-0.98779296875,-0.98779296875
1536453669.7419224,-1.0,-1.0,-1.0,-1.0,-1.0,-1.0,-1.0,-1.0,0.2086181640625,0.2086181640625,0.2086181640625,0.2086181640625,0.18115234375,0.18115234375,0.18115234375
1536453669.8018885,-2.0,-2.0,-2.0,-2.0,-2.0,-2.0,-2.0,-2.0,0.63201904296875,0.63201904296875,0.63201904296875,0.63201904296875,0.119140625,0.119140625,0.119140625
1536453669.8618548,-2.0,-2.0,-2.0,-2.0,-2.0,-2.0,-2.0,-2.0,-0.10198974609375,-0.10198974609375,-0.10198974609375,-0.10198974609375,-0.9873046875,-0.9873046875,-0.9873046875
1536453669.9218183,-1.0,-1.0,-1.0,-1.0,-1.0,-1.0,-1.0,-1.0,0.7392578125,0.7392578125,0.7392578125,0.7392578125,0.18017578125,0.18017578125,0.18017578125
1536453669.9817848,-1.0,-1.0,-1.0,-1.0,-1.0,-1.0,-1.0,-1.0,0.2086181640625,0.2086181640625,0.2086181640625,0.2086181640625,0.1181640625,0.1181640625,0.1181640625
1536453670.0417497,-3.0,-3.0,-3.0,-3.0,-3.0,-3.0,-3.0,-3.0,0.63201904296875,0.63201904296875,0.63201904296875,0.63201904296875,-0.9833984375,-0.9833984375,-0.9833984375
1536453670.1017146,-1.0,-1.0,-1.0,-1.0,-1.0,-1.0,-1.0,-1.0,-0.10198974609375,-0.10198974609375,-0.10198974609375,-0.10198974609375,0.1875,0.1875,0.1875
1536453670.1607327,-1.0,-1.0,-1.0,-1.0,-1.0,-1.0,-1.0,-1.0,0.7392578125,0.7392578125,0.7392578125,0.7392578125,0.1123046875,0.1123046875,0.1123046875
1536453670.2206995,-1.0,-1.0,-1.0,-1.0,-1.0,-1.0,-1.0,-1.0,0.20867919921875,0.20867919921875,0.20867919921875,0.20867919921875,-0.9833984375,-0.9833984375,-0.9833984375
1536453670.2816143,-1.0,-1.0,-1.0,-1.0,-1.0,-1.0,-1.0,-1.0,0.63201904296875,0.63201904296875,0.63201904296875,0.63201904296875,0.18603515625,0.18603515625,0.18603515625
1536453670.3405793,-3.0,-3.0,-3.0,-3.0,-3.0,-3.0,-3.0,-3.0,-0.10198974609375,-0.10198974609375,-0.10198974609375,-0.10198974609375,0.115234375,0.115234375,0.115234375
1536453670.4015458,0.0,0.0,0.0,0.0,0.0,0.0,0.0,0.0,0.7392578125,0.7392578125,0.7392578125,0.7392578125,-0.9853515625,-0.9853515625,-0.9853515625
1536453670.461511,-1.0,-1.0,-1.0,-1.0,-1.0,-1.0,-1.0,-1.0,0.20867919921875,0.20867919921875,0.20867919921875,0.20867919921875,0.18212890625,0.18212890625,0.18212890625
1536453670.5204756,-2.0,-2.0,-2.0,-2.0,-2.0,-2.0,-2.0,-2.0,0.63201904296875,0.63201904296875,0.63201904296875,0.63201904296875,0.11181640625,0.11181640625,0.11181640625
1536453670.5804417,2.0,2.0,2.0,2.0,2.0,2.0,2.0,2.0,-0.1019287109375,-0.1019287109375,-0.1019287109375,-0.1019287109375,-0.9814453125,-0.9814453125,-0.9814453125
1536453670.640407,-1.0,-1.0,-1.0,-1.0,-1.0,-1.0,-1.0,-1.0,0.7392578125,0.7392578125,0.7392578125,0.7392578125,0.1865234375,0.1865234375,0.1865234375
1536453670.7003727,-2.0,-2.0,-2.0,-2.0,-2.0,-2.0,-2.0,-2.0,0.208740234375,0.208740234375,0.208740234375,0.208740234375,0.11376953125,0.11376953125,0.11376953125
1536453670.7603555,0.0,0.0,0.0,0.0,0.0,0.0,0.0,0.0,0.63201904296875,0.63201904296875,0.63201904296875,0.63201904296875,-0.9873046875,-0.9873046875,-0.9873046875
1536453670.8123264,-1.0,-1.0,-1.0,-1.0,-1.0,-1.0,-1.0,-1.0,-0.1019287109375,-0.1019287109375,-0.1019287109375,-0.1019287109375,0.18798828125,0.18798828125,0.18798828125
1536453670.8672798,0.0,0.0,0.0,0.0,0.0,0.0,0.0,0.0,0.7392578125,0.7392578125,0.7392578125,0.7392578125,0.11181640625,0.11181640625,0.11181640625
1536453670.927245,1.0,1.0,1.0,1.0,1.0,1.0,1.0,1.0,0.208740234375,0.208740234375,0.208740234375,0.208740234375,-0.98583984375,-0.98583984375,-0.98583984375
1536453676.798387,-1.0,-1.0,-1.0,-1.0,-1.0,-1.0,-1.0,-1.0,0.63201904296875,0.63201904296875,0.63201904296875,0.63201904296875,0.18603515625,0.18603515625,0.18603515625
1536453676.858353,-1.0,-1.0,-1.0,-1.0,-1.0,-1.0,-1.0,-1.0,-0.1019287109375,-0.1019287109375,-0.1019287109375,-0.1019287109375,0.12646484375,0.12646484375,0.12646484375
1536453676.9182634,-2.0,-2.0,-2.0,-2.0,-2.0,-2.0,-2.0,-2.0,0.7392578125,0.7392578125,0.7392578125,0.7392578125,-0.9873046875,-0.9873046875,-0.9873046875
1536453676.978231,-2.0,-2.0,-2.0,-2.0,-2.0,-2.0,-2.0,-2.0,0.208740234375,0.208740234375,0.208740234375,0.208740234375,0.1708984375,0.1708984375,0.1708984375
1536453677.038213,1.0,1.0,1.0,1.0,1.0,1.0,1.0,1.0,0.63201904296875,0.63201904296875,0.63201904296875,0.63201904296875,0.1240234375,0.1240234375,0.1240234375
1536453677.0981808,-1.0,-1.0,-1.0,-1.0,-1.0,-1.0,-1.0,-1.0,-0.10186767578125,-0.10186767578125,-0.10186767578125,-0.10186767578125,-0.9658203125,-0.9658203125,-0.9658203125
1536453677.15813,-2.0,-2.0,-2.0,-2.0,-2.0,-2.0,-2.0,-2.0,0.7392578125,0.7392578125,0.7392578125,0.7392578125,0.1962890625,0.1962890625,0.1962890625
1536453677.2181122,-1.0,-1.0,-1.0,-1.0,-1.0,-1.0,-1.0,-1.0,0.20880126953125,0.20880126953125,0.20880126953125,0.20880126953125,0.1494140625,0.1494140625,0.1494140625
1536453677.27806,-3.0,-3.0,-3.0,-3.0,-3.0,-3.0,-3.0,-3.0,0.632080078125,0.632080078125,0.632080078125,0.632080078125,-1.015625,-1.015625,-1.015625
1536453677.3380253,0.0,0.0,0.0,0.0,0.0,0.0,0.0,0.0,-0.10186767578125,-0.10186767578125,-0.10186767578125,-0.10186767578125,0.19580078125,0.19580078125,0.19580078125
1536453677.3979921,-2.0,-2.0,-2.0,-2.0,-2.0,-2.0,-2.0,-2.0,0.73919677734375,0.73919677734375,0.73919677734375,0.73919677734375,0.0947265625,0.0947265625,0.0947265625
1536453677.4579647,-3.0,-3.0,-3.0,-3.0,-3.0,-3.0,-3.0,-3.0,0.20880126953125,0.20880126953125,0.20880126953125,0.20880126953125,-0.9619140625,-0.9619140625,-0.9619140625
1536453677.5179222,-1.0,-1.0,-1.0,-1.0,-1.0,-1.0,-1.0,-1.0,0.63201904296875,0.63201904296875,0.63201904296875,0.63201904296875,0.18505859375,0.18505859375,0.18505859375
1536453677.5868835,-1.0,-1.0,-1.0,-1.0,-1.0,-1.0,-1.0,-1.0,-0.10186767578125,-0.10186767578125,-0.10186767578125,-0.10186767578125,0.12646484375,0.12646484375,0.12646484375
1536453677.646848,0.0,0.0,0.0,0.0,0.0,0.0,0.0,0.0,0.73919677734375,0.73919677734375,0.73919677734375,0.73919677734375,-0.98388671875,-0.98388671875,-0.98388671875
1536453677.706813,-1.0,-1.0,-1.0,-1.0,-1.0,-1.0,-1.0,-1.0,0.20880126953125,0.20880126953125,0.20880126953125,0.20880126953125,0.1806640625,0.1806640625,0.1806640625
1536453677.7667813,-3.0,-3.0,-3.0,-3.0,-3.0,-3.0,-3.0,-3.0,0.63201904296875,0.63201904296875,0.63201904296875,0.63201904296875,0.1240234375,0.1240234375,0.1240234375
1536453677.8267455,-3.0,-3.0,-3.0,-3.0,-3.0,-3.0,-3.0,-3.0,-0.10186767578125,-0.10186767578125,-0.10186767578125,-0.10186767578125,-0.9814453125,-0.9814453125,-0.9814453125
1536453677.8867197,0.0,0.0,0.0,0.0,0.0,0.0,0.0,0.0,0.7392578125,0.7392578125,0.7392578125,0.7392578125,0.19921875,0.19921875,0.19921875
1536453677.9467385,0.0,0.0,0.0,0.0,0.0,0.0,0.0,0.0,0.2088623046875,0.2088623046875,0.2088623046875,0.2088623046875,0.10595703125,0.10595703125,0.10595703125
1536453678.0067043,-1.0,-1.0,-1.0,-1.0,-1.0,-1.0,-1.0,-1.0,0.63201904296875,0.63201904296875,0.63201904296875,0.63201904296875,-0.98193359375,-0.98193359375,-0.98193359375
1536453678.066671,-1.0,-1.0,-1.0,-1.0,-1.0,-1.0,-1.0,-1.0,-0.101806640625,-0.101806640625,-0.101806640625,-0.101806640625,0.1796875,0.1796875,0.1796875
1536453678.1266353,0.0,0.0,0.0,0.0,0.0,0.0,0.0,0.0,0.7392578125,0.7392578125,0.7392578125,0.7392578125,0.1162109375,0.1162109375,0.1162109375
1536453678.185604,-1.0,-1.0,-1.0,-1.0,-1.0,-1.0,-1.0,-1.0,0.2088623046875,0.2088623046875,0.2088623046875,0.2088623046875,-0.98388671875,-0.98388671875,-0.98388671875
1536453678.245619,-1.0,-1.0,-1.0,-1.0,-1.0,-1.0,-1.0,-1.0,0.63201904296875,0.63201904296875,0.63201904296875,0.63201904296875,0.1845703125,0.1845703125,0.1845703125
1536453678.3055334,-1.0,-1.0,-1.0,-1.0,-1.0,-1.0,-1.0,-1.0,-0.101806640625,-0.101806640625,-0.101806640625,-0.101806640625,0.1162109375,0.1162109375,0.1162109375
1536453678.3654985,-2.0,-2.0,-2.0,-2.0,-2.0,-2.0,-2.0,-2.0,0.73919677734375,0.73919677734375,0.73919677734375,0.73919677734375,-0.98583984375,-0.98583984375,-0.98583984375
1536453678.4264677,-1.0,-1.0,-1.0,-1.0,-1.0,-1.0,-1.0,-1.0,0.2088623046875,0.2088623046875,0.2088623046875,0.2088623046875,0.173828125,0.173828125,0.173828125
1536453678.486432,-1.0,-1.0,-1.0,-1.0,-1.0,-1.0,-1.0,-1.0,0.63201904296875,0.63201904296875,0.63201904296875,0.63201904296875,0.115234375,0.115234375,0.115234375
1536453678.5453968,0.0,0.0,0.0,0.0,0.0,0.0,0.0,0.0,-0.101806640625,-0.101806640625,-0.101806640625,-0.101806640625,-0.98388671875,-0.98388671875,-0.98388671875
1536453678.6063619,-1.0,-1.0,-1.0,-1.0,-1.0,-1.0,-1.0,-1.0,0.73919677734375,0.73919677734375,0.73919677734375,0.73919677734375,0.185546875,0.185546875,0.185546875
1536453678.6663275,-2.0,-2.0,-2.0,-2.0,-2.0,-2.0,-2.0,-2.0,0.2088623046875,0.2088623046875,0.2088623046875,0.2088623046875,0.11669921875,0.11669921875,0.11669921875
1536453678.7262933,-2.0,-2.0,-2.0,-2.0,-2.0,-2.0,-2.0,-2.0,0.63201904296875,0.63201904296875,0.63201904296875,0.63201904296875,-0.982421875,-0.982421875,-0.982421875
1536453678.78626,-2.0,-2.0,-2.0,-2.0,-2.0,-2.0,-2.0,-2.0,-0.10174560546875,-0.10174560546875,-0.10174560546875,-0.10174560546875,0.1875,0.1875,0.1875
1536453678.8462253,-2.0,-2.0,-2.0,-2.0,-2.0,-2.0,-2.0,-2.0,0.7392578125,0.7392578125,0.7392578125,0.7392578125,0.1142578125,0.1142578125,0.1142578125
1536453678.9061935,-1.0,-1.0,-1.0,-1.0,-1.0,-1.0,-1.0,-1.0,0.20892333984375,0.20892333984375,0.20892333984375,0.20892333984375,-0.9794921875,-0.9794921875,-0.9794921875
1536453678.9661562,-1.0,-1.0,-1.0,-1.0,-1.0,-1.0,-1.0,-1.0,0.63116455078125,0.63116455078125,0.63116455078125,0.63116455078125,0.18798828125,0.18798828125,0.18798828125
1536453679.0261233,-2.0,-2.0,-2.0,-2.0,-2.0,-2.0,-2.0,-2.0,-0.10223388671875,-0.10223388671875,-0.10223388671875,-0.10223388671875,0.11669921875,0.11669921875,0.11669921875
1536453679.0860903,-2.0,-2.0,-2.0,-2.0,-2.0,-2.0,-2.0,-2.0,0.7398681640625,0.7398681640625,0.7398681640625,0.7398681640625,-0.98388671875,-0.98388671875,-0.98388671875
1536453679.1460555,-2.0,-2.0,-2.0,-2.0,-2.0,-2.0,-2.0,-2.0,0.20660400390625,0.20660400390625,0.20660400390625,0.20660400390625,0.18359375,0.18359375,0.18359375
1536453679.2140687,-3.0,-3.0,-3.0,-3.0,-3.0,-3.0,-3.0,-3.0,0.6287841796875,0.6287841796875,0.6287841796875,0.6287841796875,0.1181640625,0.1181640625,0.1181640625
1536453679.2659864,0.0,0.0,0.0,0.0,0.0,0.0,0.0,0.0,-0.10308837890625,-0.10308837890625,-0.10308837890625,-0.10308837890625,-0.98828125,-0.98828125,-0.98828125
1536453679.3259504,-2.0,-2.0,-2.0,-2.0,-2.0,-2.0,-2.0,-2.0,0.742431640625,0.742431640625,0.742431640625,0.742431640625,0.1787109375,0.1787109375,0.1787109375
1536453679.3859184,-1.0,-1.0,-1.0,-1.0,-1.0,-1.0,-1.0,-1.0,0.20184326171875,0.20184326171875,0.20184326171875,0.20184326171875,0.115234375,0.115234375,0.115234375
1536453679.4458823,1.0,1.0,1.0,1.0,1.0,1.0,1.0,1.0,0.62774658203125,0.62774658203125,0.62774658203125,0.62774658203125,-0.98095703125,-0.98095703125,-0.98095703125
1536453679.5058477,-1.0,-1.0,-1.0,-1.0,-1.0,-1.0,-1.0,-1.0,-0.10211181640625,-0.10211181640625,-0.10211181640625,-0.10211181640625,0.18505859375,0.18505859375,0.18505859375
1536453679.5658135,-1.0,-1.0,-1.0,-1.0,-1.0,-1.0,-1.0,-1.0,0.7447509765625,0.7447509765625,0.7447509765625,0.7447509765625,0.1142578125,0.1142578125,0.1142578125
1536453679.6258337,-2.0,-2.0,-2.0,-2.0,-2.0,-2.0,-2.0,-2.0,0.1986083984375,0.1986083984375,0.1986083984375,0.1986083984375,-0.98486328125,-0.98486328125,-0.98486328125
1536453679.6857457,-1.0,-1.0,-1.0,-1.0,-1.0,-1.0,-1.0,-1.0,0.62615966796875,0.62615966796875,0.62615966796875,0.62615966796875,0.18701171875,0.18701171875,0.18701171875
1536453679.745765,-1.0,-1.0,-1.0,-1.0,-1.0,-1.0,-1.0,-1.0,-0.10107421875,-0.10107421875,-0.10107421875,-0.10107421875,0.1083984375,0.1083984375,0.1083984375
1536453679.8057299,-1.0,-1.0,-1.0,-1.0,-1.0,-1.0,-1.0,-1.0,0.74713134765625,0.74713134765625,0.74713134765625,0.74713134765625,-0.9853515625,-0.9853515625,-0.9853515625
1536453679.8656943,-2.0,-2.0,-2.0,-2.0,-2.0,-2.0,-2.0,-2.0,0.1966552734375,0.1966552734375,0.1966552734375,0.1966552734375,0.18115234375,0.18115234375,0.18115234375
1536453679.9256196,-1.0,-1.0,-1.0,-1.0,-1.0,-1.0,-1.0,-1.0,0.62933349609375,0.62933349609375,0.62933349609375,0.62933349609375,0.111328125,0.111328125,0.111328125
1536453679.985574,1.0,1.0,1.0,1.0,1.0,1.0,1.0,1.0,-0.0986328125,-0.0986328125,-0.0986328125,-0.0986328125,-0.9833984375,-0.9833984375,-0.9833984375
1536453680.0455396,0.0,0.0,0.0,0.0,0.0,0.0,0.0,0.0,0.74530029296875,0.74530029296875,0.74530029296875,0.74530029296875,0.18603515625,0.18603515625,0.18603515625
1536453680.105505,1.0,1.0,1.0,1.0,1.0,1.0,1.0,1.0,0.2000732421875,0.2000732421875,0.2000732421875,0.2000732421875,0.1162109375,0.1162109375,0.1162109375
1536453680.1654701,-2.0,-2.0,-2.0,-2.0,-2.0,-2.0,-2.0,-2.0,0.630126953125,0.630126953125,0.630126953125,0.630126953125,-0.98486328125,-0.98486328125,-0.98486328125
1536453680.2254364,-2.0,-2.0,-2.0,-2.0,-2.0,-2.0,-2.0,-2.0,-0.10198974609375,-0.10198974609375,-0.10198974609375,-0.10198974609375,0.18359375,0.18359375,0.18359375
1536453680.2854016,2.0,2.0,2.0,2.0,2.0,2.0,2.0,2.0,0.7432861328125,0.7432861328125,0.7432861328125,0.7432861328125,0.11669921875,0.11669921875,0.11669921875
1536453680.3453684,-1.0,-1.0,-1.0,-1.0,-1.0,-1.0,-1.0,-1.0,0.20330810546875,0.20330810546875,0.20330810546875,0.20330810546875,-0.9833984375,-0.9833984375,-0.9833984375
1536453680.4053369,0.0,0.0,0.0,0.0,0.0,0.0,0.0,0.0,0.63128662109375,0.63128662109375,0.63128662109375,0.63128662109375,0.181640625,0.181640625,0.181640625
1536453680.4742935,-1.0,-1.0,-1.0,-1.0,-1.0,-1.0,-1.0,-1.0,-0.10064697265625,-0.10064697265625,-0.10064697265625,-0.10064697265625,0.11181640625,0.11181640625,0.11181640625
1536453680.534259,0.0,0.0,0.0,0.0,0.0,0.0,0.0,0.0,0.7415771484375,0.7415771484375,0.7415771484375,0.7415771484375,-0.98046875,-0.98046875,-0.98046875
1536453680.594225,-2.0,-2.0,-2.0,-2.0,-2.0,-2.0,-2.0,-2.0,0.20574951171875,0.20574951171875,0.20574951171875,0.20574951171875,0.18408203125,0.18408203125,0.18408203125
1536453680.654191,-2.0,-2.0,-2.0,-2.0,-2.0,-2.0,-2.0,-2.0,0.6319580078125,0.6319580078125,0.6319580078125,0.6319580078125,0.12060546875,0.12060546875,0.12060546875
1536453680.7141578,-2.0,-2.0,-2.0,-2.0,-2.0,-2.0,-2.0,-2.0,-0.09918212890625,-0.09918212890625,-0.09918212890625,-0.09918212890625,-0.9873046875,-0.9873046875,-0.9873046875
1536453680.7741222,-1.0,-1.0,-1.0,-1.0,-1.0,-1.0,-1.0,-1.0,0.740478515625,0.740478515625,0.740478515625,0.740478515625,0.18359375,0.18359375,0.18359375
1536453680.834088,-3.0,-3.0,-3.0,-3.0,-3.0,-3.0,-3.0,-3.0,0.20562744140625,0.20562744140625,0.20562744140625,0.20562744140625,0.11474609375,0.11474609375,0.11474609375
1536453680.8940537,-1.0,-1.0,-1.0,-1.0,-1.0,-1.0,-1.0,-1.0,0.63275146484375,0.63275146484375,0.63275146484375,0.63275146484375,-0.98828125,-0.98828125,-0.98828125
1536453680.9540198,0.0,0.0,0.0,0.0,0.0,0.0,0.0,0.0,-0.09906005859375,-0.09906005859375,-0.09906005859375,-0.09906005859375,0.1865234375,0.1865234375,0.1865234375
1536453681.0149848,-1.0,-1.0,-1.0,-1.0,-1.0,-1.0,-1.0,-1.0,0.73992919921875,0.73992919921875,0.73992919921875,0.73992919921875,0.11669921875,0.11669921875,0.11669921875
1536453681.0739524,-1.0,-1.0,-1.0,-1.0,-1.0,-1.0,-1.0,-1.0,0.20562744140625,0.20562744140625,0.20562744140625,0.20562744140625,-0.9833984375,-0.9833984375,-0.9833984375
1536453681.1339188,-1.0,-1.0,-1.0,-1.0,-1.0,-1.0,-1.0,-1.0,0.6326904296875,0.6326904296875,0.6326904296875,0.6326904296875,0.1875,0.1875,0.1875
1536453681.1938822,-1.0,-1.0,-1.0,-1.0,-1.0,-1.0,-1.0,-1.0,-0.10003662109375,-0.10003662109375,-0.10003662109375,-0.10003662109375,0.11572265625,0.11572265625,0.11572265625
1536453681.2538671,-3.0,-3.0,-3.0,-3.0,-3.0,-3.0,-3.0,-3.0,0.73980712890625,0.73980712890625,0.73980712890625,0.73980712890625,-0.98828125,-0.98828125,-0.98828125
1536453681.313815,0.0,0.0,0.0,0.0,0.0,0.0,0.0,0.0,0.2056884765625,0.2056884765625,0.2056884765625,0.2056884765625,0.18359375,0.18359375,0.18359375
1536453681.3737986,-1.0,-1.0,-1.0,-1.0,-1.0,-1.0,-1.0,-1.0,0.63262939453125,0.63262939453125,0.63262939453125,0.63262939453125,0.1162109375,0.1162109375,0.1162109375
1536453681.4337645,-1.0,-1.0,-1.0,-1.0,-1.0,-1.0,-1.0,-1.0,-0.1002197265625,-0.1002197265625,-0.1002197265625,-0.1002197265625,-0.9814453125,-0.9814453125,-0.9814453125
1536453681.4937305,-1.0,-1.0,-1.0,-1.0,-1.0,-1.0,-1.0,-1.0,0.73980712890625,0.73980712890625,0.73980712890625,0.73980712890625,0.18359375,0.18359375,0.18359375
1536453681.5536766,0.0,0.0,0.0,0.0,0.0,0.0,0.0,0.0,0.20599365234375,0.20599365234375,0.20599365234375,0.20599365234375,0.107421875,0.107421875,0.107421875
1536453681.6136434,-1.0,-1.0,-1.0,-1.0,-1.0,-1.0,-1.0,-1.0,0.63250732421875,0.63250732421875,0.63250732421875,0.63250732421875,-0.98193359375,-0.98193359375,-0.98193359375
1536453681.673627,-2.0,-2.0,-2.0,-2.0,-2.0,-2.0,-2.0,-2.0,-0.09991455078125,-0.09991455078125,-0.09991455078125,-0.09991455078125,0.1845703125,0.1845703125,0.1845703125
1536453681.7345731,-2.0,-2.0,-2.0,-2.0,-2.0,-2.0,-2.0,-2.0,0.73992919921875,0.73992919921875,0.73992919921875,0.73992919921875,0.11767578125,0.11767578125,0.11767578125
1536453681.7935588,-1.0,-1.0,-1.0,-1.0,-1.0,-1.0,-1.0,-1.0,0.206298828125,0.206298828125,0.206298828125,0.206298828125,-0.98681640625,-0.98681640625,-0.98681640625
1536453681.854505,-2.0,-2.0,-2.0,-2.0,-2.0,-2.0,-2.0,-2.0,0.6324462890625,0.6324462890625,0.6324462890625,0.6324462890625,0.18310546875,0.18310546875,0.18310546875
1536453681.9144707,-1.0,-1.0,-1.0,-1.0,-1.0,-1.0,-1.0,-1.0,-0.09954833984375,-0.09954833984375,-0.09954833984375,-0.09954833984375,0.11279296875,0.11279296875,0.11279296875
1536453681.9744375,0.0,0.0,0.0,0.0,0.0,0.0,0.0,0.0,0.7398681640625,0.7398681640625,0.7398681640625,0.7398681640625,-0.984375,-0.984375,-0.984375
1536453682.0344026,-1.0,-1.0,-1.0,-1.0,-1.0,-1.0,-1.0,-1.0,0.20635986328125,0.20635986328125,0.20635986328125,0.20635986328125,0.18212890625,0.18212890625,0.18212890625
1536453682.0943682,-1.0,-1.0,-1.0,-1.0,-1.0,-1.0,-1.0,-1.0,0.6324462890625,0.6324462890625,0.6324462890625,0.6324462890625,0.11376953125,0.11376953125,0.11376953125
1536453682.1543365,0.0,0.0,0.0,0.0,0.0,0.0,0.0,0.0,-0.0994873046875,-0.0994873046875,-0.0994873046875,-0.0994873046875,-0.98583984375,-0.98583984375,-0.98583984375
1536453682.2143013,0.0,0.0,0.0,0.0,0.0,0.0,0.0,0.0,0.73992919921875,0.73992919921875,0.73992919921875,0.73992919921875,0.18798828125,0.18798828125,0.18798828125
1536453682.2652705,-1.0,-1.0,-1.0,-1.0,-1.0,-1.0,-1.0,-1.0,0.20635986328125,0.20635986328125,0.20635986328125,0.20635986328125,0.1201171875,0.1201171875,0.1201171875
1536453682.31924,-1.0,-1.0,-1.0,-1.0,-1.0,-1.0,-1.0,-1.0,0.63238525390625,0.63238525390625,0.63238525390625,0.63238525390625,-0.9892578125,-0.9892578125,-0.9892578125
1536453682.3792064,-1.0,-1.0,-1.0,-1.0,-1.0,-1.0,-1.0,-1.0,-0.0994873046875,-0.0994873046875,-0.0994873046875,-0.0994873046875,0.18212890625,0.18212890625,0.18212890625
1536453682.4391725,0.0,0.0,0.0,0.0,0.0,0.0,0.0,0.0,0.73992919921875,0.73992919921875,0.73992919921875,0.73992919921875,0.1201171875,0.1201171875,0.1201171875
1536453682.4991384,-2.0,-2.0,-2.0,-2.0,-2.0,-2.0,-2.0,-2.0,0.20635986328125,0.20635986328125,0.20635986328125,0.20635986328125,-0.9853515625,-0.9853515625,-0.9853515625
1536453682.5591035,-2.0,-2.0,-2.0,-2.0,-2.0,-2.0,-2.0,-2.0,0.63238525390625,0.63238525390625,0.63238525390625,0.63238525390625,0.1806640625,0.1806640625,0.1806640625
1536453682.6190703,-1.0,-1.0,-1.0,-1.0,-1.0,-1.0,-1.0,-1.0,-0.0994873046875,-0.0994873046875,-0.0994873046875,-0.0994873046875,0.11865234375,0.11865234375,0.11865234375
1536453682.6790373,-3.0,-3.0,-3.0,-3.0,-3.0,-3.0,-3.0,-3.0,0.73992919921875,0.73992919921875,0.73992919921875,0.73992919921875,-0.982421875,-0.982421875,-0.982421875
1536453682.739012,0.0,0.0,0.0,0.0,0.0,0.0,0.0,0.0,0.20635986328125,0.20635986328125,0.20635986328125,0.20635986328125,0.18505859375,0.18505859375,0.18505859375
1536453682.7990184,0.0,0.0,0.0,0.0,0.0,0.0,0.0,0.0,0.63238525390625,0.63238525390625,0.63238525390625,0.63238525390625,0.11962890625,0.11962890625,0.11962890625
1536453682.8589306,-1.0,-1.0,-1.0,-1.0,-1.0,-1.0,-1.0,-1.0,-0.0994873046875,-0.0994873046875,-0.0994873046875,-0.0994873046875,-0.98193359375,-0.98193359375,-0.98193359375
1536453682.9188995,0.0,0.0,0.0,0.0,0.0,0.0,0.0,0.0,0.73992919921875,0.73992919921875,0.73992919921875,0.73992919921875,0.18701171875,0.18701171875,0.18701171875
1536453682.9798617,0.0,0.0,0.0,0.0,0.0,0.0,0.0,0.0,0.20635986328125,0.20635986328125,0.20635986328125,0.20635986328125,0.11328125,0.11328125,0.11328125
1536453688.251147,-3.0,-3.0,-3.0,-3.0,-3.0,-3.0,-3.0,-3.0,0.63238525390625,0.63238525390625,0.63238525390625,0.63238525390625,-0.97900390625,-0.97900390625,-0.97900390625
1536453688.3111126,-1.0,-1.0,-1.0,-1.0,-1.0,-1.0,-1.0,-1.0,-0.09942626953125,-0.09942626953125,-0.09942626953125,-0.09942626953125,0.18359375,0.18359375,0.18359375
1536453688.372043,-1.0,-1.0,-1.0,-1.0,-1.0,-1.0,-1.0,-1.0,0.73992919921875,0.73992919921875,0.73992919921875,0.73992919921875,0.119140625,0.119140625,0.119140625
1536453688.4311404,-1.0,-1.0,-1.0,-1.0,-1.0,-1.0,-1.0,-1.0,0.2064208984375,0.2064208984375,0.2064208984375,0.2064208984375,-0.982421875,-0.982421875,-0.982421875
1536453688.4920547,-1.0,-1.0,-1.0,-1.0,-1.0,-1.0,-1.0,-1.0,0.63238525390625,0.63238525390625,0.63238525390625,0.63238525390625,0.1875,0.1875,0.1875
1536453688.552019,-2.0,-2.0,-2.0,-2.0,-2.0,-2.0,-2.0,-2.0,-0.09942626953125,-0.09942626953125,-0.09942626953125,-0.09942626953125,0.11328125,0.11328125,0.11328125
1536453688.6119864,0.0,0.0,0.0,0.0,0.0,0.0,0.0,0.0,0.73992919921875,0.73992919921875,0.73992919921875,0.73992919921875,-0.98681640625,-0.98681640625,-0.98681640625
1536453688.6719508,0.0,0.0,0.0,0.0,0.0,0.0,0.0,0.0,0.2064208984375,0.2064208984375,0.2064208984375,0.2064208984375,0.181640625,0.181640625,0.181640625
1536453688.7320294,-1.0,-1.0,-1.0,-1.0,-1.0,-1.0,-1.0,-1.0,0.63232421875,0.63232421875,0.63232421875,0.63232421875,0.12109375,0.12109375,0.12109375
1536453688.7919958,-2.0,-2.0,-2.0,-2.0,-2.0,-2.0,-2.0,-2.0,-0.09942626953125,-0.09942626953125,-0.09942626953125,-0.09942626953125,-0.9853515625,-0.9853515625,-0.9853515625
1536453688.8509426,-1.0,-1.0,-1.0,-1.0,-1.0,-1.0,-1.0,-1.0,0.739990234375,0.739990234375,0.739990234375,0.739990234375,0.18310546875,0.18310546875,0.18310546875
1536453688.910909,-1.0,-1.0,-1.0,-1.0,-1.0,-1.0,-1.0,-1.0,0.2064208984375,0.2064208984375,0.2064208984375,0.2064208984375,0.11962890625,0.11962890625,0.11962890625
1536453688.9718747,0.0,0.0,0.0,0.0,0.0,0.0,0.0,0.0,0.63232421875,0.63232421875,0.63232421875,0.63232421875,-0.9853515625,-0.9853515625,-0.9853515625
1536453689.0318398,0.0,0.0,0.0,0.0,0.0,0.0,0.0,0.0,-0.09942626953125,-0.09942626953125,-0.09942626953125,-0.09942626953125,0.1845703125,0.1845703125,0.1845703125
1536453689.090826,-2.0,-2.0,-2.0,-2.0,-2.0,-2.0,-2.0,-2.0,0.739990234375,0.739990234375,0.739990234375,0.739990234375,0.10986328125,0.10986328125,0.10986328125
1536453689.1508088,-2.0,-2.0,-2.0,-2.0,-2.0,-2.0,-2.0,-2.0,0.20648193359375,0.20648193359375,0.20648193359375,0.20648193359375,-0.984375,-0.984375,-0.984375
1536453689.2047403,-1.0,-1.0,-1.0,-1.0,-1.0,-1.0,-1.0,-1.0,0.63232421875,0.63232421875,0.63232421875,0.63232421875,0.1884765625,0.1884765625,0.1884765625
1536453689.2557604,-3.0,-3.0,-3.0,-3.0,-3.0,-3.0,-3.0,-3.0,-0.099365234375,-0.099365234375,-0.099365234375,-0.099365234375,0.12548828125,0.12548828125,0.12548828125
1536453689.3157485,-3.0,-3.0,-3.0,-3.0,-3.0,-3.0,-3.0,-3.0,0.73992919921875,0.73992919921875,0.73992919921875,0.73992919921875,-0.984375,-0.984375,-0.984375
1536453689.3756962,0.0,0.0,0.0,0.0,0.0,0.0,0.0,0.0,0.20648193359375,0.20648193359375,0.20648193359375,0.20648193359375,0.18505859375,0.18505859375,0.18505859375
1536453689.4356456,0.0,0.0,0.0,0.0,0.0,0.0,0.0,0.0,0.63232421875,0.63232421875,0.63232421875,0.63232421875,0.12158203125,0.12158203125,0.12158203125
1536453689.495723,0.0,0.0,0.0,0.0,0.0,0.0,0.0,0.0,-0.099365234375,-0.099365234375,-0.099365234375,-0.099365234375,-0.98486328125,-0.98486328125,-0.98486328125
1536453689.55569,-1.0,-1.0,-1.0,-1.0,-1.0,-1.0,-1.0,-1.0,0.739990234375,0.739990234375,0.739990234375,0.739990234375,0.18212890625,0.18212890625,0.18212890625
1536453689.6156545,-2.0,-2.0,-2.0,-2.0,-2.0,-2.0,-2.0,-2.0,0.20648193359375,0.20648193359375,0.20648193359375,0.20648193359375,0.12451171875,0.12451171875,0.12451171875
1536453689.6756175,-2.0,-2.0,-2.0,-2.0,-2.0,-2.0,-2.0,-2.0,0.63232421875,0.63232421875,0.63232421875,0.63232421875,-0.9814453125,-0.9814453125,-0.9814453125
1536453689.735675,-1.0,-1.0,-1.0,-1.0,-1.0,-1.0,-1.0,-1.0,-0.099365234375,-0.099365234375,-0.099365234375,-0.099365234375,0.18408203125,0.18408203125,0.18408203125
1536453689.795642,-1.0,-1.0,-1.0,-1.0,-1.0,-1.0,-1.0,-1.0,0.739990234375,0.739990234375,0.739990234375,0.739990234375,0.11767578125,0.11767578125,0.11767578125
1536453689.855607,-2.0,-2.0,-2.0,-2.0,-2.0,-2.0,-2.0,-2.0,0.20648193359375,0.20648193359375,0.20648193359375,0.20648193359375,-0.98291015625,-0.98291015625,-0.98291015625
1536453689.9155748,0.0,0.0,0.0,0.0,0.0,0.0,0.0,0.0,0.63232421875,0.63232421875,0.63232421875,0.63232421875,0.1865234375,0.1865234375,0.1865234375
1536453689.9755383,-1.0,-1.0,-1.0,-1.0,-1.0,-1.0,-1.0,-1.0,-0.099365234375,-0.099365234375,-0.099365234375,-0.099365234375,0.11572265625,0.11572265625,0.11572265625
1536453690.0354862,-1.0,-1.0,-1.0,-1.0,-1.0,-1.0,-1.0,-1.0,0.739990234375,0.739990234375,0.739990234375,0.739990234375,-0.98486328125,-0.98486328125,-0.98486328125
1536453690.0954695,-1.0,-1.0,-1.0,-1.0,-1.0,-1.0,-1.0,-1.0,0.20654296875,0.20654296875,0.20654296875,0.20654296875,0.181640625,0.181640625,0.181640625
1536453690.1554348,-1.0,-1.0,-1.0,-1.0,-1.0,-1.0,-1.0,-1.0,0.63232421875,0.63232421875,0.63232421875,0.63232421875,0.11181640625,0.11181640625,0.11181640625
1536453690.2154016,0.0,0.0,0.0,0.0,0.0,0.0,0.0,0.0,-0.09930419921875,-0.09930419921875,-0.09930419921875,-0.09930419921875,-0.98046875,-0.98046875,-0.98046875
1536453690.276313,-1.0,-1.0,-1.0,-1.0,-1.0,-1.0,-1.0,-1.0,0.739990234375,0.739990234375,0.739990234375,0.739990234375,0.1845703125,0.1845703125,0.1845703125
1536453690.3362794,-1.0,-1.0,-1.0,-1.0,-1.0,-1.0,-1.0,-1.0,0.20654296875,0.20654296875,0.20654296875,0.20654296875,0.1162109375,0.1162109375,0.1162109375
1536453690.3962457,-2.0,-2.0,-2.0,-2.0,-2.0,-2.0,-2.0,-2.0,0.63232421875,0.63232421875,0.63232421875,0.63232421875,-0.986328125,-0.986328125,-0.986328125
1536453690.4562106,0.0,0.0,0.0,0.0,0.0,0.0,0.0,0.0,-0.09930419921875,-0.09930419921875,-0.09930419921875,-0.09930419921875,0.1845703125,0.1845703125,0.1845703125
1536453690.516176,-3.0,-3.0,-3.0,-3.0,-3.0,-3.0,-3.0,-3.0,0.739990234375,0.739990234375,0.739990234375,0.739990234375,0.11376953125,0.11376953125,0.11376953125
1536453690.5761418,-2.0,-2.0,-2.0,-2.0,-2.0,-2.0,-2.0,-2.0,0.20654296875,0.20654296875,0.20654296875,0.20654296875,-0.9814453125,-0.9814453125,-0.9814453125
1536453690.6361074,-2.0,-2.0,-2.0,-2.0,-2.0,-2.0,-2.0,-2.0,0.63232421875,0.63232421875,0.63232421875,0.63232421875,0.18359375,0.18359375,0.18359375
1536453690.6960733,-1.0,-1.0,-1.0,-1.0,-1.0,-1.0,-1.0,-1.0,-0.09930419921875,-0.09930419921875,-0.09930419921875,-0.09930419921875,0.11083984375,0.11083984375,0.11083984375
1536453690.7561479,1.0,1.0,1.0,1.0,1.0,1.0,1.0,1.0,0.739990234375,0.739990234375,0.739990234375,0.739990234375,-0.98388671875,-0.98388671875,-0.98388671875
1536453690.8160934,-1.0,-1.0,-1.0,-1.0,-1.0,-1.0,-1.0,-1.0,0.20654296875,0.20654296875,0.20654296875,0.20654296875,0.18994140625,0.18994140625,0.18994140625
1536453690.876112,-1.0,-1.0,-1.0,-1.0,-1.0,-1.0,-1.0,-1.0,0.63226318359375,0.63226318359375,0.63226318359375,0.63226318359375,0.12255859375,0.12255859375,0.12255859375
1536453690.9370432,-1.0,-1.0,-1.0,-1.0,-1.0,-1.0,-1.0,-1.0,-0.0992431640625,-0.0992431640625,-0.0992431640625,-0.0992431640625,-0.98779296875,-0.98779296875,-0.98779296875
1536453690.9950094,0.0,0.0,0.0,0.0,0.0,0.0,0.0,0.0,0.739990234375,0.739990234375,0.739990234375,0.739990234375,0.1826171875,0.1826171875,0.1826171875
1536453691.0550103,0.0,0.0,0.0,0.0,0.0,0.0,0.0,0.0,0.20660400390625,0.20660400390625,0.20660400390625,0.20660400390625,0.11865234375,0.11865234375,0.11865234375
1536453691.1149752,-2.0,-2.0,-2.0,-2.0,-2.0,-2.0,-2.0,-2.0,0.63226318359375,0.63226318359375,0.63226318359375,0.63226318359375,-0.982421875,-0.982421875,-0.982421875
1536453691.1758878,0.0,0.0,0.0,0.0,0.0,0.0,0.0,0.0,-0.0992431640625,-0.0992431640625,-0.0992431640625,-0.0992431640625,0.1826171875,0.1826171875,0.1826171875
1536453691.2358549,-1.0,-1.0,-1.0,-1.0,-1.0,-1.0,-1.0,-1.0,0.739990234375,0.739990234375,0.739990234375,0.739990234375,0.1142578125,0.1142578125,0.1142578125
1536453691.2958188,-1.0,-1.0,-1.0,-1.0,-1.0,-1.0,-1.0,-1.0,0.20660400390625,0.20660400390625,0.20660400390625,0.20660400390625,-0.98291015625,-0.98291015625,-0.98291015625
1536453691.355792,0.0,0.0,0.0,0.0,0.0,0.0,0.0,0.0,0.63226318359375,0.63226318359375,0.63226318359375,0.63226318359375,0.18359375,0.18359375,0.18359375
1536453691.4148042,-2.0,-2.0,-2.0,-2.0,-2.0,-2.0,-2.0,-2.0,-0.0992431640625,-0.0992431640625,-0.0992431640625,-0.0992431640625,0.11962890625,0.11962890625,0.11962890625
1536453691.4747705,-2.0,-2.0,-2.0,-2.0,-2.0,-2.0,-2.0,-2.0,0.739990234375,0.739990234375,0.739990234375,0.739990234375,-0.98583984375,-0.98583984375,-0.98583984375
1536453691.534735,1.0,1.0,1.0,1.0,1.0,1.0,1.0,1.0,0.2066650390625,0.2066650390625,0.2066650390625,0.2066650390625,0.1845703125,0.1845703125,0.1845703125
1536453691.59565,2.0,2.0,2.0,2.0,2.0,2.0,2.0,2.0,0.63226318359375,0.63226318359375,0.63226318359375,0.63226318359375,0.11474609375,0.11474609375,0.11474609375
1536453691.6556318,0.0,0.0,0.0,0.0,0.0,0.0,0.0,0.0,-0.09918212890625,-0.09918212890625,-0.09918212890625,-0.09918212890625,-0.98486328125,-0.98486328125,-0.98486328125
1536453691.7236254,-1.0,-1.0,-1.0,-1.0,-1.0,-1.0,-1.0,-1.0,0.739990234375,0.739990234375,0.739990234375,0.739990234375,0.18310546875,0.18310546875,0.18310546875
1536453691.775556,-1.0,-1.0,-1.0,-1.0,-1.0,-1.0,-1.0,-1.0,0.2066650390625,0.2066650390625,0.2066650390625,0.2066650390625,0.11669921875,0.11669921875,0.11669921875
1536453691.8445075,-1.0,-1.0,-1.0,-1.0,-1.0,-1.0,-1.0,-1.0,0.63226318359375,0.63226318359375,0.63226318359375,0.63226318359375,-0.98583984375,-0.98583984375,-0.98583984375
1536453691.9045603,0.0,0.0,0.0,0.0,0.0,0.0,0.0,0.0,-0.09918212890625,-0.09918212890625,-0.09918212890625,-0.09918212890625,0.1875,0.1875,0.1875
1536453691.9635808,0.0,0.0,0.0,0.0,0.0,0.0,0.0,0.0,0.739990234375,0.739990234375,0.739990234375,0.739990234375,0.1171875,0.1171875,0.1171875
1536453692.0235453,-3.0,-3.0,-3.0,-3.0,-3.0,-3.0,-3.0,-3.0,0.2066650390625,0.2066650390625,0.2066650390625,0.2066650390625,-0.9892578125,-0.9892578125,-0.9892578125
1536453692.084478,-1.0,-1.0,-1.0,-1.0,-1.0,-1.0,-1.0,-1.0,0.63226318359375,0.63226318359375,0.63226318359375,0.63226318359375,0.18359375,0.18359375,0.18359375
1536453692.1444423,0.0,0.0,0.0,0.0,0.0,0.0,0.0,0.0,-0.09918212890625,-0.09918212890625,-0.09918212890625,-0.09918212890625,0.11767578125,0.11767578125,0.11767578125
1536453692.2043889,0.0,0.0,0.0,0.0,0.0,0.0,0.0,0.0,0.739990234375,0.739990234375,0.739990234375,0.739990234375,-0.96875,-0.96875,-0.96875
1536453692.264361,1.0,1.0,1.0,1.0,1.0,1.0,1.0,1.0,0.2066650390625,0.2066650390625,0.2066650390625,0.2066650390625,0.20166015625,0.20166015625,0.20166015625
1536453692.3243241,-2.0,-2.0,-2.0,-2.0,-2.0,-2.0,-2.0,-2.0,0.6322021484375,0.6322021484375,0.6322021484375,0.6322021484375,0.12451171875,0.12451171875,0.12451171875
1536453692.3842928,-1.0,-1.0,-1.0,-1.0,-1.0,-1.0,-1.0,-1.0,-0.09918212890625,-0.09918212890625,-0.09918212890625,-0.09918212890625,-0.99365234375,-0.99365234375,-0.99365234375
1536453692.4442546,-2.0,-2.0,-2.0,-2.0,-2.0,-2.0,-2.0,-2.0,0.74005126953125,0.74005126953125,0.74005126953125,0.74005126953125,0.17578125,0.17578125,0.17578125
1536453692.5042179,0.0,0.0,0.0,0.0,0.0,0.0,0.0,0.0,0.2066650390625,0.2066650390625,0.2066650390625,0.2066650390625,0.1220703125,0.1220703125,0.1220703125
1536453692.5641913,0.0,0.0,0.0,0.0,0.0,0.0,0.0,0.0,0.6322021484375,0.6322021484375,0.6322021484375,0.6322021484375,-0.9873046875,-0.9873046875,-0.9873046875
1536453692.6241505,-2.0,-2.0,-2.0,-2.0,-2.0,-2.0,-2.0,-2.0,-0.09912109375,-0.09912109375,-0.09912109375,-0.09912109375,0.1796875,0.1796875,0.1796875
1536453692.6841147,-3.0,-3.0,-3.0,-3.0,-3.0,-3.0,-3.0,-3.0,0.74005126953125,0.74005126953125,0.74005126953125,0.74005126953125,0.11328125,0.11328125,0.11328125
1536453692.7440803,-1.0,-1.0,-1.0,-1.0,-1.0,-1.0,-1.0,-1.0,0.2066650390625,0.2066650390625,0.2066650390625,0.2066650390625,-0.986328125,-0.986328125,-0.986328125
1536453692.8120604,0.0,0.0,0.0,0.0,0.0,0.0,0.0,0.0,0.6322021484375,0.6322021484375,0.6322021484375,0.6322021484375,0.1904296875,0.1904296875,0.1904296875
1536453692.8640258,8.0,8.0,8.0,8.0,8.0,8.0,8.0,8.0,-0.09912109375,-0.09912109375,-0.09912109375,-0.09912109375,0.12646484375,0.12646484375,0.12646484375
1536453692.9239821,3.0,3.0,3.0,3.0,3.0,3.0,3.0,3.0,0.74005126953125,0.74005126953125,0.74005126953125,0.74005126953125,-0.9765625,-0.9765625,-0.9765625
1536453692.9839432,-2.0,-2.0,-2.0,-2.0,-2.0,-2.0,-2.0,-2.0,0.20672607421875,0.20672607421875,0.20672607421875,0.20672607421875,0.1943359375,0.1943359375,0.1943359375
1536453693.0439425,-2.0,-2.0,-2.0,-2.0,-2.0,-2.0,-2.0,-2.0,0.6322021484375,0.6322021484375,0.6322021484375,0.6322021484375,0.13525390625,0.13525390625,0.13525390625
1536453693.1039166,0.0,0.0,0.0,0.0,0.0,0.0,0.0,0.0,-0.09912109375,-0.09912109375,-0.09912109375,-0.09912109375,-0.99072265625,-0.99072265625,-0.99072265625
1536453693.1639123,0.0,0.0,0.0,0.0,0.0,0.0,0.0,0.0,0.74005126953125,0.74005126953125,0.74005126953125,0.74005126953125,0.181640625,0.181640625,0.181640625
1536453693.223865,-4.0,-4.0,-4.0,-4.0,-4.0,-4.0,-4.0,-4.0,0.20672607421875,0.20672607421875,0.20672607421875,0.20672607421875,0.1103515625,0.1103515625,0.1103515625
1536453693.2838254,-1.0,-1.0,-1.0,-1.0,-1.0,-1.0,-1.0,-1.0,0.6322021484375,0.6322021484375,0.6322021484375,0.6322021484375,-0.98046875,-0.98046875,-0.98046875
1536453693.3437905,-3.0,-3.0,-3.0,-3.0,-3.0,-3.0,-3.0,-3.0,-0.09912109375,-0.09912109375,-0.09912109375,-0.09912109375,0.19482421875,0.19482421875,0.19482421875
1536453693.403754,4.0,4.0,4.0,4.0,4.0,4.0,4.0,4.0,0.74005126953125,0.74005126953125,0.74005126953125,0.74005126953125,0.115234375,0.115234375,0.115234375
1536453693.463722,4.0,4.0,4.0,4.0,4.0,4.0,4.0,4.0,0.20672607421875,0.20672607421875,0.20672607421875,0.20672607421875,-0.9833984375,-0.9833984375,-0.9833984375
1536453693.5236874,7.0,7.0,7.0,7.0,7.0,7.0,7.0,7.0,0.63214111328125,0.63214111328125,0.63214111328125,0.63214111328125,0.18798828125,0.18798828125,0.18798828125
1536453693.5836535,17.0,17.0,17.0,17.0,17.0,17.0,17.0,17.0,-0.09912109375,-0.09912109375,-0.09912109375,-0.09912109375,0.11279296875,0.11279296875,0.11279296875
1536453693.6436183,0.0,0.0,0.0,0.0,0.0,0.0,0.0,0.0,0.74005126953125,0.74005126953125,0.74005126953125,0.74005126953125,-0.98291015625,-0.98291015625,-0.98291015625
1536453693.7035322,1.0,1.0,1.0,1.0,1.0,1.0,1.0,1.0,0.20672607421875,0.20672607421875,0.20672607421875,0.20672607421875,0.1875,0.1875,0.1875
1536453693.7645166,-13.0,-13.0,-13.0,-13.0,-13.0,-13.0,-13.0,-13.0,0.63214111328125,0.63214111328125,0.63214111328125,0.63214111328125,0.119140625,0.119140625,0.119140625
1536453693.8234658,-2.0,-2.0,-2.0,-2.0,-2.0,-2.0,-2.0,-2.0,-0.09912109375,-0.09912109375,-0.09912109375,-0.09912109375,-0.98388671875,-0.98388671875,-0.98388671875
1536453693.8834305,-15.0,-15.0,-15.0,-15.0,-15.0,-15.0,-15.0,-15.0,0.74005126953125,0.74005126953125,0.74005126953125,0.74005126953125,0.19140625,0.19140625,0.19140625
1536453693.9433968,-9.0,-9.0,-9.0,-9.0,-9.0,-9.0,-9.0,-9.0,0.206787109375,0.206787109375,0.206787109375,0.206787109375,0.11474609375,0.11474609375,0.11474609375
1536453694.0033634,-7.0,-7.0,-7.0,-7.0,-7.0,-7.0,-7.0,-7.0,0.63214111328125,0.63214111328125,0.63214111328125,0.63214111328125,-0.98095703125,-0.98095703125,-0.98095703125
1536453694.0633373,-13.0,-13.0,-13.0,-13.0,-13.0,-13.0,-13.0,-13.0,-0.09906005859375,-0.09906005859375,-0.09906005859375,-0.09906005859375,0.19189453125,0.19189453125,0.19189453125
1536453694.1233008,-4.0,-4.0,-4.0,-4.0,-4.0,-4.0,-4.0,-4.0,0.7401123046875,0.7401123046875,0.7401123046875,0.7401123046875,0.123046875,0.123046875,0.123046875
1536453694.1823313,-7.0,-7.0,-7.0,-7.0,-7.0,-7.0,-7.0,-7.0,0.206787109375,0.206787109375,0.206787109375,0.206787109375,-0.9833984375,-0.9833984375,-0.9833984375
1536453694.242277,-10.0,-10.0,-10.0,-10.0,-10.0,-10.0,-10.0,-10.0,0.632080078125,0.632080078125,0.632080078125,0.632080078125,0.18701171875,0.18701171875,0.18701171875
1536453694.3022418,-26.0,-26.0,-26.0,-26.0,-26.0,-26.0,-26.0,-26.0,-0.09906005859375,-0.09906005859375,-0.09906005859375,-0.09906005859375,0.11865234375,0.11865234375,0.11865234375
