time,emg_1,emg_2,emg_3,emg_4,emg_5,emg_6,emg_7,emg_8,ori_1,ori_2,ori_3,ori_4,acc_1,acc_2,acc_3
1543516843.364629,-1.0,0.0,-1.0,4.0,2.0,-1.0,-1.0,-2.0,-0.5267333984375,-0.3887939453125,-0.50042724609375,0.56658935546875,0.96728515625,-0.20703125,0.14892578125
1543516843.3876178,-8.0,0.0,2.0,5.0,1.0,0.0,-1.0,-4.0,-0.5267333984375,-0.3887939453125,-0.50042724609375,0.56658935546875,0.9658203125,-0.21435546875,0.150390625
1543516843.400662,4.0,-6.0,12.0,12.0,-6.0,-4.0,7.0,-9.0,-0.5267333984375,-0.3887939453125,-0.50042724609375,0.56658935546875,0.9658203125,-0.21240234375,0.150390625
1543516843.408641,-7.0,3.0,-2.0,-17.0,1.0,3.0,-5.0,-2.0,-0.5269775390625,-0.3885498046875,-0.50048828125,0.56646728515625,0.9619140625,-0.21630859375,0.146484375
1543516843.4245946,7.0,2.0,-3.0,-27.0,1.0,-1.0,-6.0,-1.0,-0.5269775390625,-0.3885498046875,-0.50048828125,0.56646728515625,0.9619140625,-0.21630859375,0.146484375
1543516843.4475825,-9.0,-5.0,3.0,9.0,-3.0,-3.0,-8.0,7.0,-0.52734375,-0.38836669921875,-0.50054931640625,0.56622314453125,0.96630859375,-0.2333984375,0.14892578125
1543516843.460628,-32.0,-6.0,-19.0,-43.0,-7.0,-6.0,-3.0,-14.0,-0.5274658203125,-0.3883056640625,-0.50048828125,0.566162109375,0.96875,-0.240234375,0.146484375
1543516843.4695878,-18.0,-2.0,-29.0,17.0,-4.0,-10.0,-8.0,-3.0,-0.526611328125,-0.38848876953125,-0.50067138671875,0.56671142578125,0.96728515625,-0.2080078125,0.1650390625
1543516843.4846199,34.0,9.0,-15.0,10.0,0.0,4.0,-9.0,1.0,-0.526611328125,-0.38848876953125,-0.50067138671875,0.56671142578125,0.96728515625,-0.2080078125,0.1650390625
1543516843.506549,2.0,-3.0,24.0,-3.0,4.0,3.0,3.0,4.0,-0.52557373046875,-0.388916015625,-0.50067138671875,0.56732177734375,0.96875,-0.21337890625,0.15576171875
1543516843.522539,12.0,9.0,11.0,54.0,5.0,6.0,-10.0,8.0,-0.52490234375,-0.3887939453125,-0.50128173828125,0.56756591796875,0.9873046875,-0.20068359375,0.18994140625
1543516843.5295346,23.0,1.0,-16.0,-25.0,0.0,4.0,2.0,11.0,-0.524169921875,-0.38812255859375,-0.50189208984375,0.568115234375,0.95703125,-0.20849609375,0.15380859375
1543516843.5445719,7.0,1.0,19.0,4.0,0.0,5.0,7.0,4.0,-0.524169921875,-0.38812255859375,-0.50189208984375,0.568115234375,0.95703125,-0.20849609375,0.15380859375
1543516843.567513,8.0,2.0,19.0,-35.0,-5.0,3.0,-1.0,7.0,-0.5225830078125,-0.38922119140625,-0.5018310546875,0.56890869140625,0.94873046875,-0.17138671875,0.15771484375
1543516843.5805585,-11.0,0.0,-9.0,1.0,2.0,3.0,-3.0,-2.0,-0.52252197265625,-0.38916015625,-0.5018310546875,0.56903076171875,0.98291015625,-0.22216796875,0.14306640625
1543516843.5895195,-2.0,-7.0,-13.0,-26.0,-3.0,-4.0,2.0,6.0,-0.52197265625,-0.38885498046875,-0.501953125,0.569580078125,0.9775390625,-0.24072265625,0.14892578125
1543516843.6074905,-1.0,3.0,4.0,12.0,3.0,-2.0,-1.0,-4.0,-0.52197265625,-0.38885498046875,-0.501953125,0.569580078125,0.9775390625,-0.24072265625,0.14892578125
1543516843.6185377,-13.0,3.0,0.0,-3.0,0.0,0.0,-1.0,-6.0,-0.5206298828125,-0.38970947265625,-0.50152587890625,0.57061767578125,0.95556640625,-0.1787109375,0.154296875
1543516843.6274803,-7.0,-1.0,-4.0,0.0,1.0,-2.0,2.0,1.0,-0.5206298828125,-0.38970947265625,-0.50152587890625,0.57061767578125,0.95556640625,-0.1787109375,0.154296875
1543516843.6414723,1.0,4.0,12.0,21.0,-2.0,3.0,15.0,0.0,-0.52056884765625,-0.3892822265625,-0.5018310546875,0.5706787109375,0.974609375,-0.193359375,0.17822265625
1543516843.6494656,-4.0,2.0,15.0,16.0,0.0,0.0,-1.0,3.0,-0.5203857421875,-0.38897705078125,-0.50177001953125,0.5711669921875,0.96630859375,-0.220703125,0.16162109375
1543516843.664517,29.0,-8.0,-29.0,-34.0,-2.0,-8.0,-11.0,2.0,-0.5203857421875,-0.38897705078125,-0.50177001953125,0.5711669921875,0.96630859375,-0.220703125,0.16162109375
1543516843.6874616,-19.0,2.0,-16.0,-1.0,0.0,-4.0,-5.0,-5.0,-0.51971435546875,-0.3890380859375,-0.5018310546875,0.5716552734375,0.97119140625,-0.1943359375,0.17919921875
1543516843.7004545,13.0,-9.0,25.0,18.0,-1.0,-8.0,-3.0,1.0,-0.51953125,-0.3890380859375,-0.50164794921875,0.57196044921875,0.9697265625,-0.21630859375,0.15283203125
1543516843.7094328,-22.0,-2.0,-36.0,-51.0,-1.0,1.0,-2.0,-1.0,-0.51910400390625,-0.38934326171875,-0.501220703125,0.57257080078125,0.96484375,-0.20751953125,0.1494140625
1543516843.724442,-3.0,-2.0,3.0,20.0,-1.0,2.0,1.0,-3.0,-0.51910400390625,-0.38934326171875,-0.501220703125,0.57257080078125,0.96484375,-0.20751953125,0.1494140625
1543516843.7474115,23.0,5.0,-14.0,11.0,-5.0,-8.0,-4.0,6.0,-0.5186767578125,-0.3895263671875,-0.501220703125,0.57275390625,0.9638671875,-0.1962890625,0.16357421875
1543516843.7534053,-17.0,3.0,-1.0,2.0,0.0,2.0,1.0,1.0,-0.51806640625,-0.3902587890625,-0.50103759765625,0.57293701171875,0.9716796875,-0.1953125,0.1728515625
1543516843.7694163,3.0,2.0,9.0,-7.0,2.0,4.0,0.0,-4.0,-0.51806640625,-0.3902587890625,-0.50103759765625,0.57293701171875,0.9716796875,-0.1953125,0.1728515625
1543516843.7763948,-3.0,3.0,-8.0,3.0,1.0,1.0,0.0,-2.0,-0.517822265625,-0.3905029296875,-0.50115966796875,0.57293701171875,0.9677734375,-0.1923828125,0.16650390625
1543516843.7843902,-9.0,-3.0,-10.0,13.0,-1.0,1.0,3.0,-1.0,-0.517822265625,-0.3905029296875,-0.50115966796875,0.57293701171875,0.9677734375,-0.1923828125,0.16650390625
1543516843.7914088,-4.0,-1.0,4.0,7.0,-4.0,-2.0,-1.0,1.0,-0.517822265625,-0.39044189453125,-0.5013427734375,0.57281494140625,0.96875,-0.19677734375,0.16455078125
1543516843.8064058,11.0,-13.0,-7.0,-18.0,-6.0,-5.0,-3.0,-2.0,-0.517822265625,-0.39044189453125,-0.5013427734375,0.57281494140625,0.96875,-0.19677734375,0.16455078125
1543516843.8133724,-8.0,-6.0,3.0,-10.0,-3.0,-4.0,1.0,1.0,-0.51806640625,-0.39031982421875,-0.5015869140625,0.572509765625,0.9716796875,-0.20849609375,0.16162109375
1543516843.8293626,-2.0,6.0,14.0,-7.0,1.0,3.0,-1.0,-2.0,-0.51806640625,-0.39031982421875,-0.5015869140625,0.572509765625,0.9716796875,-0.20849609375,0.16162109375
1543516843.8363583,3.0,2.0,-26.0,0.0,0.0,-7.0,-1.0,-1.0,-0.518310546875,-0.3902587890625,-0.50164794921875,0.57220458984375,0.95947265625,-0.2109375,0.1494140625
1543516843.8443604,-13.0,-3.0,10.0,7.0,-1.0,-1.0,1.0,-4.0,-0.518310546875,-0.3902587890625,-0.50164794921875,0.57220458984375,0.95947265625,-0.2109375,0.1494140625
1543516843.8513532,0.0,1.0,11.0,1.0,1.0,1.0,1.0,-1.0,-0.51837158203125,-0.3905029296875,-0.5015869140625,0.57208251953125,0.9638671875,-0.20751953125,0.15966796875
1543516843.866395,-6.0,7.0,-2.0,23.0,-1.0,-4.0,-4.0,0.0,-0.51837158203125,-0.3905029296875,-0.5015869140625,0.57208251953125,0.9638671875,-0.20751953125,0.15966796875
1543516843.873337,0.0,4.0,-5.0,-9.0,-3.0,-1.0,-2.0,-3.0,-0.518310546875,-0.39093017578125,-0.50152587890625,0.5718994140625,0.9638671875,-0.203125,0.15185546875
1543516843.8893325,-11.0,-14.0,-10.0,-3.0,0.0,-1.0,0.0,3.0,-0.518310546875,-0.39093017578125,-0.50152587890625,0.5718994140625,0.9638671875,-0.203125,0.15185546875
1543516843.8963242,0.0,1.0,1.0,-9.0,-2.0,1.0,-8.0,-1.0,-0.5181884765625,-0.3912353515625,-0.5015869140625,0.57171630859375,0.96533203125,-0.19482421875,0.1591796875
1543516843.9043198,-5.0,-8.0,-1.0,12.0,-2.0,-2.0,8.0,-7.0,-0.5181884765625,-0.3912353515625,-0.5015869140625,0.57171630859375,0.96533203125,-0.19482421875,0.1591796875
1543516843.9113152,-12.0,-7.0,8.0,-8.0,-7.0,-9.0,1.0,-11.0,-0.518310546875,-0.391357421875,-0.5018310546875,0.57135009765625,0.97265625,-0.19873046875,0.16650390625
1543516843.9263818,2.0,6.0,-2.0,6.0,2.0,2.0,-3.0,-2.0,-0.518310546875,-0.391357421875,-0.5018310546875,0.57135009765625,0.97265625,-0.19873046875,0.16650390625
1543516843.9333026,1.0,-3.0,10.0,2.0,3.0,0.0,0.0,2.0,-0.51861572265625,-0.39129638671875,-0.501953125,0.57098388671875,0.96826171875,-0.20849609375,0.16259765625
1543516843.9492977,-1.0,1.0,-3.0,-9.0,-2.0,-2.0,-2.0,0.0,-0.51861572265625,-0.39129638671875,-0.501953125,0.57098388671875,0.96826171875,-0.20849609375,0.16259765625
1543516843.9552917,2.0,2.0,0.0,5.0,3.0,5.0,3.0,1.0,-0.51904296875,-0.39117431640625,-0.5020751953125,0.570556640625,0.96630859375,-0.20458984375,0.16357421875
1543516843.9642844,-4.0,-2.0,7.0,-4.0,-2.0,0.0,-3.0,-2.0,-0.51904296875,-0.39117431640625,-0.5020751953125,0.570556640625,0.96630859375,-0.20458984375,0.16357421875
1543516843.9783018,2.0,-5.0,4.0,1.0,-4.0,-1.0,1.0,2.0,-0.51947021484375,-0.39111328125,-0.5020751953125,0.57025146484375,0.96240234375,-0.2099609375,0.15771484375
1543516843.9863374,-3.0,1.0,-1.0,-5.0,-2.0,-4.0,-2.0,-3.0,-0.51947021484375,-0.39111328125,-0.5020751953125,0.57025146484375,0.96240234375,-0.2099609375,0.15771484375
1543516843.9932683,-2.0,3.0,0.0,6.0,-1.0,1.0,-1.0,0.0,-0.519775390625,-0.39105224609375,-0.5020751953125,0.57000732421875,0.95947265625,-0.20458984375,0.16552734375
1543516844.0092602,1.0,-4.0,-6.0,-10.0,5.0,-1.0,-2.0,-3.0,-0.519775390625,-0.39105224609375,-0.5020751953125,0.57000732421875,0.95947265625,-0.20458984375,0.16552734375
1543516844.0162554,1.0,-3.0,3.0,-4.0,-3.0,-6.0,-2.0,3.0,-0.52001953125,-0.39117431640625,-0.5018310546875,0.56988525390625,0.96337890625,-0.20458984375,0.16552734375
1543516844.02625,1.0,-3.0,3.0,-4.0,-3.0,-6.0,-2.0,3.0,-0.52001953125,-0.39117431640625,-0.5018310546875,0.56988525390625,0.96337890625,-0.20458984375,0.16552734375
1543516844.046292,-3.0,-2.0,-3.0,6.0,-3.0,1.0,-3.0,-2.0,-0.520751953125,-0.39111328125,-0.50140380859375,0.56964111328125,0.96337890625,-0.205078125,0.17333984375
1543516844.0532532,0.0,-1.0,-3.0,2.0,0.0,1.0,0.0,-2.0,-0.52203369140625,-0.390625,-0.5009765625,0.56915283203125,0.970703125,-0.21923828125,0.16552734375
1543516844.069227,-2.0,-1.0,1.0,-5.0,-1.0,1.0,-2.0,-2.0,-0.52203369140625,-0.390625,-0.5009765625,0.56915283203125,0.970703125,-0.21923828125,0.16552734375
1543516844.076221,1.0,-1.0,1.0,-1.0,-2.0,-1.0,1.0,0.0,-0.52337646484375,-0.39019775390625,-0.50030517578125,0.56878662109375,0.9619140625,-0.22412109375,0.15185546875
1543516844.084218,-2.0,-2.0,2.0,-5.0,-4.0,-1.0,-2.0,-2.0,-0.52337646484375,-0.39019775390625,-0.50030517578125,0.56878662109375,0.9619140625,-0.22412109375,0.15185546875
1543516844.0912127,-3.0,-2.0,0.0,3.0,1.0,3.0,-1.0,0.0,-0.52447509765625,-0.39007568359375,-0.49957275390625,0.56854248046875,0.96044921875,-0.22802734375,0.14697265625
1543516844.1062565,-2.0,0.0,0.0,-4.0,0.0,-5.0,0.0,-2.0,-0.52447509765625,-0.39007568359375,-0.49957275390625,0.56854248046875,0.96044921875,-0.22802734375,0.14697265625
1543516844.1132104,-1.0,-4.0,2.0,-1.0,-3.0,-4.0,-1.0,-1.0,-0.5252685546875,-0.39031982421875,-0.49871826171875,0.56842041015625,0.9609375,-0.2216796875,0.13623046875
1543516844.129191,0.0,0.0,-9.0,1.0,-1.0,3.0,-1.0,0.0,-0.5252685546875,-0.39031982421875,-0.49871826171875,0.56842041015625,0.9609375,-0.2216796875,0.13623046875
1543516844.1361883,-2.0,0.0,-2.0,0.0,1.0,-1.0,-1.0,-2.0,-0.525390625,-0.3909912109375,-0.4979248046875,0.5684814453125,0.96142578125,-0.2099609375,0.1416015625
1543516844.144182,1.0,-5.0,-2.0,-2.0,-1.0,1.0,0.0,-2.0,-0.525390625,-0.3909912109375,-0.4979248046875,0.5684814453125,0.96142578125,-0.2099609375,0.1416015625
1543516844.1511774,-1.0,2.0,-3.0,1.0,-1.0,-2.0,-3.0,-3.0,-0.52532958984375,-0.39178466796875,-0.497314453125,0.56854248046875,0.96337890625,-0.19580078125,0.13330078125
1543516844.1662235,-5.0,-3.0,-6.0,0.0,0.0,-1.0,0.0,-1.0,-0.52532958984375,-0.39178466796875,-0.497314453125,0.56854248046875,0.96337890625,-0.19580078125,0.13330078125
1543516844.1731648,0.0,1.0,1.0,0.0,-2.0,0.0,-1.0,0.0,-0.5252685546875,-0.39251708984375,-0.49700927734375,0.56842041015625,0.9697265625,-0.19091796875,0.13525390625
1543516844.1891587,9.0,2.0,3.0,-7.0,-3.0,-3.0,-1.0,0.0,-0.5252685546875,-0.39251708984375,-0.49700927734375,0.56842041015625,0.9697265625,-0.19091796875,0.13525390625
1543516844.1961527,-8.0,-2.0,-4.0,2.0,-2.0,3.0,-2.0,-2.0,-0.52520751953125,-0.39306640625,-0.49688720703125,0.568115234375,0.9736328125,-0.193359375,0.14208984375
1543516844.2041664,0.0,3.0,5.0,-2.0,-1.0,-3.0,0.0,2.0,-0.52520751953125,-0.39306640625,-0.49688720703125,0.568115234375,0.9736328125,-0.193359375,0.14208984375
1543516844.2191389,6.0,-1.0,2.0,-1.0,-2.0,-3.0,-4.0,-4.0,-0.52520751953125,-0.39306640625,-0.49688720703125,0.568115234375,0.9736328125,-0.193359375,0.14208984375
1543516844.2261536,-3.0,4.0,-8.0,3.0,1.0,1.0,1.0,-3.0,-0.52545166015625,-0.39337158203125,-0.49688720703125,0.56768798828125,0.974609375,-0.2021484375,0.13818359375
1543516844.2331493,-20.0,-44.0,-3.0,-5.0,-3.0,-2.0,0.0,1.0,-0.52557373046875,-0.3935546875,-0.49688720703125,0.56744384765625,0.96923828125,-0.2041015625,0.1396484375
1543516844.249122,-3.0,11.0,-4.0,-7.0,-3.0,-8.0,-8.0,-8.0,-0.52557373046875,-0.3935546875,-0.49688720703125,0.56744384765625,0.96923828125,-0.2041015625,0.1396484375
1543516844.2561188,18.0,0.0,0.0,-1.0,0.0,-5.0,-3.0,-2.0,-0.52593994140625,-0.39361572265625,-0.49700927734375,0.5670166015625,0.9619140625,-0.2099609375,0.1376953125
1543516844.264122,-19.0,-16.0,3.0,1.0,-2.0,1.0,1.0,0.0,-0.52593994140625,-0.39361572265625,-0.49700927734375,0.5670166015625,0.9619140625,-0.2099609375,0.1376953125
1543516844.271109,6.0,11.0,-3.0,-3.0,-1.0,2.0,0.0,-1.0,-0.526123046875,-0.39361572265625,-0.49700927734375,0.56683349609375,0.96630859375,-0.21630859375,0.1416015625
1543516844.286103,1.0,-7.0,2.0,1.0,0.0,-1.0,1.0,1.0,-0.526123046875,-0.39361572265625,-0.49700927734375,0.56683349609375,0.96630859375,-0.21630859375,0.1416015625
1543516844.2930965,-1.0,6.0,-2.0,0.0,3.0,0.0,-1.0,-2.0,-0.52630615234375,-0.39373779296875,-0.49688720703125,0.566650390625,0.96728515625,-0.20947265625,0.13623046875
1543516844.3090868,1.0,-1.0,4.0,-1.0,3.0,-5.0,-3.0,-1.0,-0.52630615234375,-0.39373779296875,-0.49688720703125,0.566650390625,0.96728515625,-0.20947265625,0.13623046875
1543516844.3160837,-1.0,2.0,3.0,-1.0,-2.0,-5.0,0.0,-5.0,-0.526611328125,-0.39385986328125,-0.4967041015625,0.56646728515625,0.95849609375,-0.212890625,0.1328125
1543516844.324078,1.0,4.0,-3.0,3.0,3.0,3.0,-1.0,1.0,-0.526611328125,-0.39385986328125,-0.4967041015625,0.56646728515625,0.95849609375,-0.212890625,0.1328125
1543516844.331075,2.0,4.0,-4.0,1.0,0.0,-1.0,-1.0,0.0,-0.5269775390625,-0.39404296875,-0.49627685546875,0.56640625,0.962890625,-0.21923828125,0.14306640625
1543516844.3461187,-1.0,-3.0,1.0,0.0,-3.0,0.0,1.0,0.0,-0.5269775390625,-0.39404296875,-0.49627685546875,0.56640625,0.962890625,-0.21923828125,0.14306640625
1543516844.3530803,-1.0,2.0,1.0,2.0,0.0,2.0,0.0,2.0,-0.52703857421875,-0.394287109375,-0.4957275390625,0.566650390625,0.9658203125,-0.22314453125,0.1494140625
1543516844.3690562,1.0,-1.0,-1.0,-2.0,0.0,0.0,-1.0,-1.0,-0.52703857421875,-0.394287109375,-0.4957275390625,0.566650390625,0.9658203125,-0.22314453125,0.1494140625
1543516844.3760502,0.0,2.0,-2.0,0.0,-3.0,0.0,0.0,0.0,-0.52691650390625,-0.394775390625,-0.4951171875,0.56695556640625,0.9697265625,-0.21533203125,0.14892578125
1543516844.3830636,-4.0,-1.0,1.0,-2.0,-5.0,-1.0,-1.0,-1.0,-0.52691650390625,-0.394775390625,-0.4951171875,0.56695556640625,0.9697265625,-0.21533203125,0.14892578125
1543516844.3920405,-5.0,-8.0,1.0,-3.0,-1.0,0.0,0.0,0.0,-0.52691650390625,-0.394775390625,-0.4951171875,0.56695556640625,0.9697265625,-0.21533203125,0.14892578125
1543516844.406091,-1.0,0.0,0.0,-2.0,-1.0,-7.0,0.0,-2.0,-0.526611328125,-0.3953857421875,-0.49456787109375,0.5672607421875,0.9697265625,-0.203125,0.1455078125
1543516844.4140322,-3.0,-2.0,-2.0,-2.0,0.0,1.0,-1.0,-1.0,-0.526611328125,-0.3953857421875,-0.49456787109375,0.5672607421875,0.9697265625,-0.203125,0.1455078125
1543516844.4290211,1.0,-1.0,-6.0,0.0,1.0,3.0,-1.0,1.0,-0.52630615234375,-0.395751953125,-0.49432373046875,0.5675048828125,0.97607421875,-0.19921875,0.1552734375
1543516844.4360144,1.0,6.0,-6.0,-2.0,1.0,4.0,-1.0,0.0,-0.52630615234375,-0.3958740234375,-0.49420166015625,0.56756591796875,0.9755859375,-0.20166015625,0.14404296875
1543516844.4430647,2.0,-4.0,-1.0,-2.0,0.0,-2.0,-3.0,-1.0,-0.52630615234375,-0.3958740234375,-0.49420166015625,0.56756591796875,0.9755859375,-0.20166015625,0.14404296875
1543516844.4520242,-3.0,-2.0,-2.0,1.0,-1.0,-4.0,-3.0,-3.0,-0.52630615234375,-0.3958740234375,-0.49420166015625,0.56756591796875,0.9755859375,-0.20166015625,0.14404296875
1543516844.4660327,1.0,3.0,-2.0,0.0,-4.0,-2.0,-1.0,-1.0,-0.5263671875,-0.39569091796875,-0.49407958984375,0.5677490234375,0.97216796875,-0.2138671875,0.1484375
1543516844.4730115,-2.0,1.0,-2.0,0.0,-1.0,-3.0,-1.0,-1.0,-0.5263671875,-0.39556884765625,-0.493896484375,0.56793212890625,0.97607421875,-0.21484375,0.14453125
1543516844.4889874,1.0,-3.0,0.0,-2.0,-1.0,-2.0,0.0,-3.0,-0.5263671875,-0.39556884765625,-0.493896484375,0.56793212890625,0.97607421875,-0.21484375,0.14453125
